Time (s),EOG (V)
0.0,1.7998229017248377
0.001,1.7559679072583094
0.002,1.7740258461562917
0.003,1.7662867294857278
0.004,1.7430693794740364
0.005,1.7649968767073005
0.006,1.7520983489230275
0.007,1.7533882017014548
0.008,1.7637070239288732
0.009000000000000001,1.7598374655935913
0.01,1.788214226718992
0.011,1.7701562878210098
0.012,1.7895040794974193
0.013000000000000001,1.8165909878443927
0.014,1.7856345211621374
0.015,1.8191706934012473
0.016,1.8127214295091107
0.017,1.801112754503265
0.018000000000000002,1.7985330489464104
0.019,1.801112754503265
0.02,1.7856345211621374
0.021,1.7830548156052828
0.022,1.7508084961446002
0.023,1.7675765822641551
0.024,1.7482287905877456
0.025,1.7443592322524637
0.026000000000000002,1.7508084961446002
0.027,1.7520983489230275
0.028,1.758547612815164
0.029,1.7688664350425825
0.03,1.7675765822641551
0.031,1.7869243739405647
0.032,1.7830548156052828
0.033,1.8024026072816923
0.034,1.8127214295091107
0.035,1.7933736378327012
0.036000000000000004,1.8101417239522561
0.037,1.8088518711738288
0.038,1.7998229017248377
0.039,1.7959533433895558
0.04,1.7662867294857278
0.041,1.775315698934719
0.042,1.7727359933778644
0.043000000000000003,1.7391998211387545
0.044,1.7727359933778644
0.045,1.7520983489230275
0.046,1.7469389378093183
0.047,1.762417171150446
0.048,1.7559679072583094
0.049,1.7649968767073005
0.05,1.7766055517131463
0.051000000000000004,1.7830548156052828
0.052000000000000005,1.814011282287538
0.053,1.7869243739405647
0.054,1.81788084062282
0.055,1.8165909878443927
0.056,1.804982312838547
0.057,1.8075620183954015
0.058,1.8088518711738288
0.059000000000000004,1.792083785054274
0.06,1.7946634906111285
0.061,1.7546780544798821
0.062,1.7791852572700009
0.063,1.7675765822641551
0.064,1.7443592322524637
0.065,1.7559679072583094
0.066,1.7482287905877456
0.067,1.7559679072583094
0.068,1.762417171150446
0.069,1.7546780544798821
0.07,1.7933736378327012
0.07100000000000001,1.78434466838371
0.07200000000000001,1.792083785054274
0.073,1.8191706934012473
0.074,1.788214226718992
0.075,1.8062721656169742
0.076,1.8101417239522561
0.077,1.801112754503265
0.078,1.8024026072816923
0.079,1.7946634906111285
0.08,1.7895040794974193
0.081,1.7830548156052828
0.082,1.7482287905877456
0.083,1.7688664350425825
0.084,1.7430693794740364
0.085,1.7508084961446002
0.08600000000000001,1.758547612815164
0.08700000000000001,1.749518643366173
0.088,1.7559679072583094
0.089,1.7662867294857278
0.09,1.7688664350425825
0.091,1.8036924600601196
0.092,1.7778954044915736
0.093,1.8062721656169742
0.094,1.8191706934012473
0.095,1.8062721656169742
0.096,1.8036924600601196
0.097,1.8088518711738288
0.098,1.7946634906111285
0.099,1.7907939322758466
0.1,1.7611273183720186
0.101,1.7791852572700009
0.10200000000000001,1.771446140599437
0.10300000000000001,1.7469389378093183
0.10400000000000001,1.7675765822641551
0.105,1.7533882017014548
0.106,1.7469389378093183
0.107,1.7533882017014548
0.108,1.7546780544798821
0.109,1.7778954044915736
0.11,1.7740258461562917
0.111,1.7740258461562917
0.112,1.8127214295091107
0.113,1.7830548156052828
0.114,1.8127214295091107
0.115,1.8114315767306834
0.116,1.7998229017248377
0.117,1.8036924600601196
0.11800000000000001,1.7985330489464104
0.11900000000000001,1.7804751100484282
0.12,1.7907939322758466
0.121,1.758547612815164
0.122,1.7649968767073005
0.123,1.7611273183720186
0.124,1.7379099683603272
0.125,1.741779526695609
0.126,1.7559679072583094
0.127,1.7546780544798821
0.128,1.7611273183720186
0.129,1.7469389378093183
0.13,1.7907939322758466
0.131,1.78434466838371
0.132,1.7869243739405647
0.133,1.8153011350659654
0.134,1.7972431961679831
0.135,1.7972431961679831
0.136,1.8114315767306834
0.137,1.7946634906111285
0.138,1.8024026072816923
0.139,1.7817649628268555
0.14,1.7675765822641551
0.14100000000000001,1.788214226718992
0.14200000000000002,1.741779526695609
0.14300000000000002,1.758547612815164
0.14400000000000002,1.7508084961446002
0.145,1.7443592322524637
0.146,1.7469389378093183
0.147,1.7546780544798821
0.148,1.7559679072583094
0.149,1.7817649628268555
0.15,1.7611273183720186
0.151,1.801112754503265
0.152,1.7856345211621374
0.153,1.7959533433895558
0.154,1.8191706934012473
0.155,1.8075620183954015
0.156,1.8075620183954015
0.157,1.801112754503265
0.158,1.7933736378327012
0.159,1.8024026072816923
0.16,1.758547612815164
0.161,1.7675765822641551
0.162,1.775315698934719
0.163,1.7314607044681907
0.164,1.7637070239288732
0.165,1.7469389378093183
0.166,1.7443592322524637
0.167,1.7508084961446002
0.168,1.758547612815164
0.169,1.7804751100484282
0.17,1.7817649628268555
0.171,1.7688664350425825
0.17200000000000001,1.8127214295091107
0.17300000000000001,1.7895040794974193
0.17400000000000002,1.8036924600601196
0.17500000000000002,1.8062721656169742
0.176,1.8024026072816923
0.177,1.804982312838547
0.178,1.7972431961679831
0.179,1.7727359933778644
0.18,1.7933736378327012
0.181,1.7508084961446002
0.182,1.758547612815164
0.183,1.7649968767073005
0.184,1.728880998911336
0.185,1.745649085030891
0.186,1.7546780544798821
0.187,1.7508084961446002
0.188,1.758547612815164
0.189,1.7533882017014548
0.19,1.801112754503265
0.191,1.7895040794974193
0.192,1.7778954044915736
0.193,1.814011282287538
0.194,1.788214226718992
0.195,1.804982312838547
0.196,1.804982312838547
0.197,1.7998229017248377
0.198,1.7946634906111285
0.199,1.7817649628268555
0.2,1.7804751100484282
0.201,1.7791852572700009
0.202,1.7391998211387545
0.203,1.7611273183720186
0.20400000000000001,1.7533882017014548
0.20500000000000002,1.7314607044681907
0.20600000000000002,1.7469389378093183
0.20700000000000002,1.7572577600367367
0.20800000000000002,1.7572577600367367
0.209,1.7895040794974193
0.21,1.758547612815164
0.211,1.7933736378327012
0.212,1.7972431961679831
0.213,1.7895040794974193
0.214,1.81788084062282
0.215,1.8088518711738288
0.216,1.7985330489464104
0.217,1.8062721656169742
0.218,1.792083785054274
0.219,1.792083785054274
0.22,1.78434466838371
0.221,1.7572577600367367
0.222,1.771446140599437
0.223,1.7366201155818999
0.224,1.7559679072583094
0.225,1.7508084961446002
0.226,1.7443592322524637
0.227,1.749518643366173
0.228,1.7662867294857278
0.229,1.771446140599437
0.23,1.7972431961679831
0.231,1.7662867294857278
0.232,1.8036924600601196
0.233,1.8075620183954015
0.234,1.7907939322758466
0.23500000000000001,1.804982312838547
0.23600000000000002,1.8036924600601196
0.23700000000000002,1.7985330489464104
0.23800000000000002,1.792083785054274
0.23900000000000002,1.762417171150446
0.24,1.7804751100484282
0.241,1.7637070239288732
0.242,1.7443592322524637
0.243,1.762417171150446
0.244,1.7314607044681907
0.245,1.7520983489230275
0.246,1.7520983489230275
0.247,1.745649085030891
0.248,1.7611273183720186
0.249,1.762417171150446
0.25,1.7766055517131463
0.251,1.8036924600601196
0.252,1.7740258461562917
0.253,1.8114315767306834
0.254,1.8127214295091107
0.255,1.7985330489464104
0.256,1.8036924600601196
0.257,1.7972431961679831
0.258,1.788214226718992
0.259,1.7972431961679831
0.26,1.7533882017014548
0.261,1.7740258461562917
0.262,1.7598374655935913
0.263,1.745649085030891
0.264,1.7611273183720186
0.265,1.741779526695609
0.266,1.7482287905877456
0.267,1.7598374655935913
0.268,1.7572577600367367
0.269,1.788214226718992
0.27,1.7701562878210098
0.271,1.7933736378327012
0.272,1.8114315767306834
0.273,1.7817649628268555
0.274,1.7998229017248377
0.275,1.8101417239522561
0.276,1.7998229017248377
0.277,1.7998229017248377
0.278,1.792083785054274
0.279,1.7766055517131463
0.28,1.7869243739405647
0.281,1.7404896739171818
0.28200000000000003,1.7598374655935913
0.28300000000000003,1.7520983489230275
0.28400000000000003,1.7443592322524637
0.28500000000000003,1.7508084961446002
0.28600000000000003,1.7508084961446002
0.28700000000000003,1.7533882017014548
0.28800000000000003,1.7701562878210098
0.289,1.758547612815164
0.29,1.801112754503265
0.291,1.7830548156052828
0.292,1.792083785054274
0.293,1.8165909878443927
0.294,1.7985330489464104
0.295,1.8062721656169742
0.296,1.8024026072816923
0.297,1.7933736378327012
0.298,1.7895040794974193
0.299,1.762417171150446
0.3,1.7662867294857278
0.301,1.7740258461562917
0.302,1.7353302628034726
0.303,1.7611273183720186
0.304,1.7559679072583094
0.305,1.7404896739171818
0.306,1.7482287905877456
0.307,1.7546780544798821
0.308,1.771446140599437
0.309,1.7817649628268555
0.31,1.762417171150446
0.311,1.8153011350659654
0.312,1.7907939322758466
0.313,1.801112754503265
0.314,1.8101417239522561
0.315,1.8062721656169742
0.316,1.801112754503265
0.317,1.7972431961679831
0.318,1.7778954044915736
0.319,1.7933736378327012
0.32,1.7508084961446002
0.321,1.758547612815164
0.322,1.7675765822641551
0.323,1.732750557246618
0.324,1.741779526695609
0.325,1.7559679072583094
0.326,1.7391998211387545
0.327,1.7559679072583094
0.328,1.7443592322524637
0.329,1.7856345211621374
0.33,1.7869243739405647
0.331,1.7778954044915736
0.332,1.8153011350659654
0.333,1.7895040794974193
0.334,1.8075620183954015
0.335,1.8024026072816923
0.336,1.7998229017248377
0.337,1.7959533433895558
0.338,1.7830548156052828
0.339,1.7649968767073005
0.34,1.7817649628268555
0.341,1.7404896739171818
0.342,1.7598374655935913
0.343,1.7559679072583094
0.34400000000000003,1.745649085030891
0.34500000000000003,1.7482287905877456
0.34600000000000003,1.7572577600367367
0.34700000000000003,1.7546780544798821
0.34800000000000003,1.7830548156052828
0.34900000000000003,1.7546780544798821
0.35000000000000003,1.7985330489464104
0.35100000000000003,1.7946634906111285
0.352,1.788214226718992
0.353,1.8204605461796746
0.354,1.804982312838547
0.355,1.804982312838547
0.356,1.804982312838547
0.357,1.792083785054274
0.358,1.7985330489464104
0.359,1.7662867294857278
0.36,1.7611273183720186
0.361,1.7727359933778644
0.362,1.7340404100250453
0.363,1.762417171150446
0.364,1.7533882017014548
0.365,1.7391998211387545
0.366,1.7520983489230275
0.367,1.758547612815164
0.368,1.7766055517131463
0.369,1.7856345211621374
0.37,1.7662867294857278
0.371,1.8062721656169742
0.372,1.7972431961679831
0.373,1.7933736378327012
0.374,1.8062721656169742
0.375,1.8062721656169742
0.376,1.7985330489464104
0.377,1.7972431961679831
0.378,1.7740258461562917
0.379,1.7959533433895558
0.38,1.749518643366173
0.381,1.7649968767073005
0.382,1.7572577600367367
0.383,1.732750557246618
0.384,1.749518643366173
0.385,1.7508084961446002
0.386,1.7469389378093183
0.387,1.7611273183720186
0.388,1.749518643366173
0.389,1.7856345211621374
0.39,1.7907939322758466
0.391,1.7817649628268555
0.392,1.8153011350659654
0.393,1.7895040794974193
0.394,1.8075620183954015
0.395,1.8075620183954015
0.396,1.7972431961679831
0.397,1.7946634906111285
0.398,1.7804751100484282
0.399,1.7675765822641551
0.4,1.7791852572700009
0.401,1.7391998211387545
0.402,1.7611273183720186
0.403,1.7508084961446002
0.404,1.741779526695609
0.405,1.7520983489230275
0.406,1.7520983489230275
0.40700000000000003,1.7572577600367367
0.40800000000000003,1.7791852572700009
0.40900000000000003,1.758547612815164
0.41000000000000003,1.801112754503265
0.41100000000000003,1.7856345211621374
0.41200000000000003,1.7946634906111285
0.41300000000000003,1.8204605461796746
0.41400000000000003,1.8088518711738288
0.41500000000000004,1.7998229017248377
0.41600000000000004,1.8036924600601196
0.417,1.788214226718992
0.418,1.7985330489464104
0.419,1.7404896739171818
0.42,1.771446140599437
0.421,1.7675765822641551
0.422,1.7353302628034726
0.423,1.758547612815164
0.424,1.7520983489230275
0.425,1.7469389378093183
0.426,1.7546780544798821
0.427,1.7637070239288732
0.428,1.7791852572700009
0.429,1.7869243739405647
0.43,1.771446140599437
0.431,1.8088518711738288
0.432,1.7907939322758466
0.433,1.801112754503265
0.434,1.8075620183954015
0.435,1.7998229017248377
0.436,1.7895040794974193
0.437,1.792083785054274
0.438,1.771446140599437
0.439,1.7766055517131463
0.44,1.7508084961446002
0.441,1.7559679072583094
0.442,1.7611273183720186
0.443,1.7353302628034726
0.444,1.741779526695609
0.445,1.7546780544798821
0.446,1.749518643366173
0.447,1.7637070239288732
0.448,1.7546780544798821
0.449,1.7907939322758466
0.45,1.7869243739405647
0.451,1.7778954044915736
0.452,1.81788084062282
0.453,1.7907939322758466
0.454,1.804982312838547
0.455,1.8036924600601196
0.456,1.7946634906111285
0.457,1.7895040794974193
0.458,1.7766055517131463
0.459,1.7637070239288732
0.46,1.7804751100484282
0.461,1.7404896739171818
0.462,1.7559679072583094
0.463,1.7533882017014548
0.464,1.741779526695609
0.465,1.7469389378093183
0.466,1.7559679072583094
0.467,1.7611273183720186
0.468,1.788214226718992
0.46900000000000003,1.758547612815164
0.47000000000000003,1.8024026072816923
0.47100000000000003,1.7933736378327012
0.47200000000000003,1.7959533433895558
0.47300000000000003,1.8165909878443927
0.47400000000000003,1.804982312838547
0.47500000000000003,1.8062721656169742
0.47600000000000003,1.801112754503265
0.47700000000000004,1.7830548156052828
0.47800000000000004,1.7959533433895558
0.47900000000000004,1.7533882017014548
0.48,1.7637070239288732
0.481,1.7701562878210098
0.482,1.7391998211387545
0.483,1.741779526695609
0.484,1.7546780544798821
0.485,1.7482287905877456
0.486,1.7533882017014548
0.487,1.7559679072583094
0.488,1.7895040794974193
0.489,1.7804751100484282
0.49,1.7778954044915736
0.491,1.8114315767306834
0.492,1.792083785054274
0.493,1.7985330489464104
0.494,1.8088518711738288
0.495,1.801112754503265
0.496,1.7998229017248377
0.497,1.792083785054274
0.498,1.7701562878210098
0.499,1.78434466838371
0.5,1.7469389378093183
0.501,1.7559679072583094
0.502,1.7559679072583094
0.503,1.745649085030891
0.504,1.7430693794740364
0.505,1.7520983489230275
0.506,1.7508084961446002
0.507,1.775315698934719
0.508,1.758547612815164
0.509,1.7985330489464104
0.51,1.7830548156052828
0.511,1.792083785054274
0.512,1.81788084062282
0.513,1.7998229017248377
0.514,1.804982312838547
0.515,1.801112754503265
0.516,1.792083785054274
0.517,1.788214226718992
0.518,1.7649968767073005
0.519,1.7688664350425825
0.52,1.7727359933778644
0.521,1.7353302628034726
0.522,1.7611273183720186
0.523,1.7508084961446002
0.524,1.7391998211387545
0.525,1.7520983489230275
0.526,1.7546780544798821
0.527,1.775315698934719
0.528,1.7791852572700009
0.529,1.7740258461562917
0.53,1.8101417239522561
0.531,1.7830548156052828
0.532,1.804982312838547
0.533,1.8036924600601196
0.534,1.801112754503265
0.535,1.804982312838547
0.536,1.7998229017248377
0.537,1.7817649628268555
0.538,1.7907939322758466
0.539,1.7533882017014548
0.54,1.7649968767073005
0.541,1.762417171150446
0.542,1.7340404100250453
0.543,1.7482287905877456
0.544,1.7533882017014548
0.545,1.7430693794740364
0.546,1.7559679072583094
0.547,1.7443592322524637
0.548,1.7869243739405647
0.549,1.78434466838371
0.55,1.78434466838371
0.551,1.8127214295091107
0.552,1.7895040794974193
0.553,1.801112754503265
0.554,1.7985330489464104
0.555,1.7959533433895558
0.556,1.7907939322758466
0.557,1.7907939322758466
0.558,1.7572577600367367
0.559,1.7804751100484282
0.56,1.7469389378093183
0.561,1.745649085030891
0.562,1.7572577600367367
0.5630000000000001,1.7391998211387545
0.5640000000000001,1.7391998211387545
0.5650000000000001,1.7482287905877456
0.5660000000000001,1.7443592322524637
0.5670000000000001,1.7701562878210098
0.5680000000000001,1.7572577600367367
0.5690000000000001,1.7778954044915736
0.5700000000000001,1.792083785054274
0.5710000000000001,1.7766055517131463
0.5720000000000001,1.7972431961679831
0.5730000000000001,1.7946634906111285
0.5740000000000001,1.788214226718992
0.5750000000000001,1.7907939322758466
0.5760000000000001,1.7830548156052828
0.577,1.7688664350425825
0.578,1.7727359933778644
0.579,1.7263012933544815
0.58,1.7508084961446002
0.581,1.741779526695609
0.582,1.7146926183486357
0.583,1.7275911461329088
0.584,1.732750557246618
0.585,1.728880998911336
0.586,1.7366201155818999
0.587,1.7301708516897634
0.588,1.7675765822641551
0.589,1.7740258461562917
0.59,1.7611273183720186
0.591,1.78434466838371
0.592,1.7766055517131463
0.593,1.7778954044915736
0.594,1.7766055517131463
0.595,1.7766055517131463
0.596,1.7688664350425825
0.597,1.7637070239288732
0.598,1.7391998211387545
0.599,1.7482287905877456
0.6,1.7314607044681907
0.601,1.7185621766839176
0.602,1.7301708516897634
0.603,1.719852029462345
0.604,1.719852029462345
0.605,1.7237215877976269
0.606,1.7237215877976269
0.607,1.7443592322524637
0.608,1.7508084961446002
0.609,1.7482287905877456
0.61,1.7804751100484282
0.611,1.7520983489230275
0.612,1.7740258461562917
0.613,1.771446140599437
0.614,1.7649968767073005
0.615,1.7649968767073005
0.616,1.758547612815164
0.617,1.7379099683603272
0.618,1.741779526695609
0.619,1.7224317350191996
0.62,1.7185621766839176
0.621,1.719852029462345
0.622,1.6927651211153716
0.623,1.7056636488996446
0.624,1.715982471127063
0.625,1.7082433544564992
0.626,1.7172723239054903
0.627,1.715982471127063
0.628,1.7237215877976269
0.629,1.762417171150446
0.63,1.7391998211387545
0.631,1.771446140599437
0.632,1.7649968767073005
0.633,1.758547612815164
0.634,1.7611273183720186
0.635,1.7598374655935913
0.636,1.7482287905877456
0.637,1.758547612815164
0.638,1.7017940905643627
0.639,1.7301708516897634
0.64,1.7237215877976269
0.641,1.7005042377859354
0.642,1.7263012933544815
0.643,1.715982471127063
0.644,1.70308394334279
0.645,1.715982471127063
0.646,1.7172723239054903
0.647,1.741779526695609
0.648,1.7443592322524637
0.649,1.7366201155818999
0.65,1.7740258461562917
0.651,1.745649085030891
0.652,1.7688664350425825
0.653,1.7675765822641551
0.654,1.7637070239288732
0.655,1.762417171150446
0.656,1.7533882017014548
0.657,1.7340404100250453
0.658,1.7469389378093183
0.659,1.7056636488996446
0.66,1.715982471127063
0.661,1.7250114405760542
0.662,1.6914752683369443
0.663,1.70308394334279
0.664,1.7146926183486357
0.665,1.70308394334279
0.666,1.719852029462345
0.667,1.7250114405760542
0.668,1.7353302628034726
0.669,1.7572577600367367
0.67,1.7379099683603272
0.671,1.7688664350425825
0.672,1.7637070239288732
0.673,1.7637070239288732
0.674,1.7598374655935913
0.675,1.758547612815164
0.676,1.7469389378093183
0.677,1.7469389378093183
0.678,1.7172723239054903
0.679,1.7391998211387545
0.68,1.715982471127063
0.681,1.7043737961212173
0.682,1.728880998911336
0.683,1.706953501678072
0.684,1.7082433544564992
0.685,1.719852029462345
0.686,1.7146926183486357
0.687,1.749518643366173
0.6880000000000001,1.7301708516897634
0.6890000000000001,1.7469389378093183
0.6900000000000001,1.7727359933778644
0.6910000000000001,1.749518643366173
0.6920000000000001,1.7740258461562917
0.6930000000000001,1.7701562878210098
0.6940000000000001,1.7598374655935913
0.6950000000000001,1.7598374655935913
0.6960000000000001,1.7520983489230275
0.6970000000000001,1.7353302628034726
0.6980000000000001,1.7430693794740364
0.6990000000000001,1.7082433544564992
0.7000000000000001,1.7211418822407722
0.7010000000000001,1.7095332072349265
0.7020000000000001,1.7056636488996446
0.7030000000000001,1.706953501678072
0.704,1.7146926183486357
0.705,1.7095332072349265
0.706,1.7366201155818999
0.707,1.7211418822407722
0.708,1.7546780544798821
0.709,1.7546780544798821
0.71,1.7443592322524637
0.711,1.7766055517131463
0.712,1.7675765822641551
0.713,1.7662867294857278
0.714,1.7701562878210098
0.715,1.7520983489230275
0.716,1.7482287905877456
0.717,1.7275911461329088
0.718,1.7211418822407722
0.719,1.7379099683603272
0.72,1.6966346794506535
0.721,1.7224317350191996
0.722,1.7146926183486357
0.723,1.7056636488996446
0.724,1.715982471127063
0.725,1.7172723239054903
0.726,1.7275911461329088
0.727,1.7520983489230275
0.728,1.719852029462345
0.729,1.7649968767073005
0.73,1.7559679072583094
0.731,1.7559679072583094
0.732,1.7637070239288732
0.733,1.7662867294857278
0.734,1.762417171150446
0.735,1.762417171150446
0.736,1.7443592322524637
0.737,1.7469389378093183
0.738,1.7211418822407722
0.739,1.7134027655702084
0.74,1.7340404100250453
0.741,1.6914752683369443
0.742,1.7056636488996446
0.743,1.715982471127063
0.744,1.7056636488996446
0.745,1.7172723239054903
0.746,1.7082433544564992
0.747,1.7430693794740364
0.748,1.7559679072583094
0.749,1.7340404100250453
0.75,1.771446140599437
0.751,1.7637070239288732
0.752,1.7572577600367367
0.753,1.7637070239288732
0.754,1.762417171150446
0.755,1.758547612815164
0.756,1.7559679072583094
0.757,1.7224317350191996
0.758,1.7443592322524637
0.759,1.7082433544564992
0.76,1.7211418822407722
0.761,1.7211418822407722
0.762,1.7017940905643627
0.763,1.7134027655702084
0.764,1.715982471127063
0.765,1.7121129127917811
0.766,1.741779526695609
0.767,1.728880998911336
0.768,1.745649085030891
0.769,1.7688664350425825
0.77,1.741779526695609
0.771,1.775315698934719
0.772,1.7662867294857278
0.773,1.7572577600367367
0.774,1.7572577600367367
0.775,1.7572577600367367
0.776,1.7482287905877456
0.777,1.7482287905877456
0.778,1.7121129127917811
0.779,1.7314607044681907
0.78,1.7146926183486357
0.781,1.7043737961212173
0.782,1.706953501678072
0.783,1.7082433544564992
0.784,1.7121129127917811
0.785,1.7185621766839176
0.786,1.7108230600133538
0.787,1.7559679072583094
0.788,1.7430693794740364
0.789,1.749518643366173
0.79,1.7791852572700009
0.791,1.7482287905877456
0.792,1.7637070239288732
0.793,1.7637070239288732
0.794,1.7572577600367367
0.795,1.7559679072583094
0.796,1.7366201155818999
0.797,1.7314607044681907
0.798,1.7379099683603272
0.799,1.7017940905643627
0.8,1.7211418822407722
0.801,1.7146926183486357
0.802,1.699214385007508
0.803,1.7095332072349265
0.804,1.7146926183486357
0.805,1.7146926183486357
0.806,1.7443592322524637
0.807,1.7224317350191996
0.808,1.762417171150446
0.809,1.7546780544798821
0.81,1.7546780544798821
0.811,1.78434466838371
0.812,1.7688664350425825
0.8130000000000001,1.7637070239288732
0.8140000000000001,1.7649968767073005
0.8150000000000001,1.7546780544798821
0.8160000000000001,1.7546780544798821
0.8170000000000001,1.7469389378093183
0.8180000000000001,1.7172723239054903
0.8190000000000001,1.7314607044681907
0.8200000000000001,1.706953501678072
0.8210000000000001,1.7082433544564992
0.8220000000000001,1.7108230600133538
0.8230000000000001,1.7017940905643627
0.8240000000000001,1.715982471127063
0.8250000000000001,1.7263012933544815
0.8260000000000001,1.719852029462345
0.8270000000000001,1.7366201155818999
0.8280000000000001,1.7379099683603272
0.8290000000000001,1.7637070239288732
0.8300000000000001,1.7766055517131463
0.8310000000000001,1.745649085030891
0.8320000000000001,1.7701562878210098
0.833,1.7662867294857278
0.834,1.762417171150446
0.835,1.758547612815164
0.836,1.728880998911336
0.837,1.7533882017014548
0.838,1.7404896739171818
0.839,1.6966346794506535
0.84,1.7263012933544815
0.841,1.7043737961212173
0.842,1.7005042377859354
0.843,1.715982471127063
0.844,1.7134027655702084
0.845,1.719852029462345
0.846,1.741779526695609
0.847,1.7211418822407722
0.848,1.7611273183720186
0.849,1.7533882017014548
0.85,1.7572577600367367
0.851,1.7804751100484282
0.852,1.762417171150446
0.853,1.7637070239288732
0.854,1.7611273183720186
0.855,1.7520983489230275
0.856,1.7546780544798821
0.857,1.7185621766839176
0.858,1.7211418822407722
0.859,1.7353302628034726
0.86,1.6888955627800897
0.861,1.7224317350191996
0.862,1.7095332072349265
0.863,1.7017940905643627
0.864,1.7121129127917811
0.865,1.7250114405760542
0.866,1.7391998211387545
0.867,1.7662867294857278
0.868,1.7314607044681907
0.869,1.771446140599437
0.87,1.7637070239288732
0.871,1.7559679072583094
0.872,1.7740258461562917
0.873,1.7611273183720186
0.874,1.7572577600367367
0.875,1.7598374655935913
0.876,1.728880998911336
0.877,1.745649085030891
0.878,1.7134027655702084
0.879,1.7121129127917811
0.88,1.7250114405760542
0.881,1.6888955627800897
0.882,1.7082433544564992
0.883,1.7172723239054903
0.884,1.7134027655702084
0.885,1.7224317350191996
0.886,1.715982471127063
0.887,1.7508084961446002
0.888,1.7637070239288732
0.889,1.7430693794740364
0.89,1.7778954044915736
0.891,1.7611273183720186
0.892,1.7675765822641551
0.893,1.7701562878210098
0.894,1.7611273183720186
0.895,1.7559679072583094
0.896,1.7443592322524637
0.897,1.7211418822407722
0.898,1.7404896739171818
0.899,1.7082433544564992
0.9,1.715982471127063
0.901,1.715982471127063
0.902,1.7005042377859354
0.903,1.7121129127917811
0.904,1.719852029462345
0.905,1.715982471127063
0.906,1.7520983489230275
0.907,1.7250114405760542
0.908,1.7598374655935913
0.909,1.7727359933778644
0.91,1.7443592322524637
0.911,1.7662867294857278
0.912,1.7701562878210098
0.913,1.7546780544798821
0.914,1.7611273183720186
0.915,1.7533882017014548
0.916,1.749518643366173
0.917,1.7469389378093183
0.918,1.7095332072349265
0.919,1.7263012933544815
0.92,1.7043737961212173
0.921,1.706953501678072
0.922,1.7172723239054903
0.923,1.7095332072349265
0.924,1.715982471127063
0.925,1.7263012933544815
0.926,1.7301708516897634
0.927,1.7598374655935913
0.928,1.7353302628034726
0.929,1.762417171150446
0.93,1.7740258461562917
0.931,1.7598374655935913
0.932,1.7637070239288732
0.933,1.762417171150446
0.934,1.7559679072583094
0.935,1.7533882017014548
0.936,1.7224317350191996
0.937,1.7391998211387545
0.9380000000000001,1.7301708516897634
0.9390000000000001,1.6979245322290808
0.9400000000000001,1.7172723239054903
0.9410000000000001,1.719852029462345
0.9420000000000001,1.7056636488996446
0.9430000000000001,1.7134027655702084
0.9440000000000001,1.715982471127063
0.9450000000000001,1.7379099683603272
0.9460000000000001,1.7430693794740364
0.9470000000000001,1.7301708516897634
0.9480000000000001,1.7675765822641551
0.9490000000000001,1.758547612815164
0.9500000000000001,1.7520983489230275
0.9510000000000001,1.7637070239288732
0.9520000000000001,1.7688664350425825
0.9530000000000001,1.7662867294857278
0.9540000000000001,1.758547612815164
0.9550000000000001,1.7469389378093183
0.9560000000000001,1.7520983489230275
0.9570000000000001,1.7301708516897634
0.9580000000000001,1.7146926183486357
0.9590000000000001,1.7340404100250453
0.96,1.6914752683369443
0.961,1.7108230600133538
0.962,1.7185621766839176
0.963,1.7082433544564992
0.964,1.7185621766839176
0.965,1.7263012933544815
0.966,1.7301708516897634
0.967,1.7611273183720186
0.968,1.7404896739171818
0.969,1.7662867294857278
0.97,1.775315698934719
0.971,1.7637070239288732
0.972,1.7637070239288732
0.973,1.7649968767073005
0.974,1.7572577600367367
0.975,1.762417171150446
0.976,1.7224317350191996
0.977,1.7391998211387545
0.978,1.7314607044681907
0.979,1.6966346794506535
0.98,1.7250114405760542
0.981,1.715982471127063
0.982,1.70308394334279
0.983,1.7121129127917811
0.984,1.7172723239054903
0.985,1.7314607044681907
0.986,1.7520983489230275
0.987,1.728880998911336
0.988,1.7649968767073005
0.989,1.7637070239288732
0.99,1.7508084961446002
0.991,1.7637070239288732
0.992,1.771446140599437
0.993,1.7572577600367367
0.994,1.758547612815164
0.995,1.7314607044681907
0.996,1.7520983489230275
0.997,1.7211418822407722
0.998,1.7095332072349265
0.999,1.7224317350191996
1.0,1.70308394334279
1.0010000000000001,1.7082433544564992
1.002,1.7108230600133538
1.0030000000000001,1.7121129127917811
1.004,1.7185621766839176
1.0050000000000001,1.7275911461329088
1.006,1.7340404100250453
1.0070000000000001,1.7637070239288732
1.008,1.7469389378093183
1.0090000000000001,1.7649968767073005
1.01,1.7817649628268555
1.0110000000000001,1.7637070239288732
1.012,1.7675765822641551
1.0130000000000001,1.7662867294857278
1.014,1.7559679072583094
1.0150000000000001,1.7637070239288732
1.016,1.7224317350191996
1.0170000000000001,1.7353302628034726
1.018,1.728880998911336
1.0190000000000001,1.7017940905643627
1.02,1.719852029462345
1.0210000000000001,1.719852029462345
1.022,1.7043737961212173
1.0230000000000001,1.7121129127917811
1.024,1.7263012933544815
1.025,1.7379099683603272
1.026,1.7533882017014548
1.027,1.728880998911336
1.028,1.771446140599437
1.029,1.7533882017014548
1.03,1.7598374655935913
1.031,1.7675765822641551
1.032,1.7637070239288732
1.033,1.7611273183720186
1.034,1.7598374655935913
1.035,1.7301708516897634
1.036,1.7520983489230275
1.037,1.7340404100250453
1.038,1.706953501678072
1.039,1.7250114405760542
1.04,1.7082433544564992
1.041,1.706953501678072
1.042,1.7185621766839176
1.043,1.7095332072349265
1.044,1.7211418822407722
1.045,1.7275911461329088
1.046,1.7482287905877456
1.047,1.7649968767073005
1.048,1.7391998211387545
1.049,1.7649968767073005
1.05,1.771446140599437
1.051,1.7662867294857278
1.052,1.7611273183720186
1.053,1.7637070239288732
1.054,1.7508084961446002
1.055,1.7572577600367367
1.056,1.7263012933544815
1.057,1.7314607044681907
1.058,1.7301708516897634
1.059,1.699214385007508
1.06,1.7275911461329088
1.061,1.7146926183486357
1.062,1.7095332072349265
1.063,1.719852029462345
1.064,1.7185621766839176
1.065,1.745649085030891
1.066,1.7314607044681907
1.067,1.745649085030891
1.068,1.7766055517131463
1.069,1.7546780544798821
1.07,1.7662867294857278
1.071,1.7701562878210098
1.072,1.762417171150446
1.073,1.7637070239288732
1.074,1.7559679072583094
1.075,1.732750557246618
1.076,1.7404896739171818
1.077,1.7082433544564992
1.078,1.7237215877976269
1.079,1.7224317350191996
1.08,1.6966346794506535
1.081,1.7095332072349265
1.082,1.7211418822407722
1.083,1.7146926183486357
1.084,1.7224317350191996
1.085,1.7211418822407722
1.086,1.7469389378093183
1.087,1.7598374655935913
1.088,1.7404896739171818
1.089,1.7740258461562917
1.09,1.7649968767073005
1.091,1.762417171150446
1.092,1.7649968767073005
1.093,1.7649968767073005
1.094,1.7546780544798821
1.095,1.749518643366173
1.096,1.7250114405760542
1.097,1.7379099683603272
1.098,1.7056636488996446
1.099,1.7108230600133538
1.1,1.7224317350191996
1.101,1.70308394334279
1.102,1.7146926183486357
1.103,1.7211418822407722
1.104,1.7172723239054903
1.105,1.7508084961446002
1.106,1.7340404100250453
1.107,1.7482287905877456
1.108,1.7727359933778644
1.109,1.7430693794740364
1.11,1.775315698934719
1.111,1.7701562878210098
1.112,1.758547612815164
1.113,1.7611273183720186
1.114,1.7559679072583094
1.115,1.7391998211387545
1.116,1.7443592322524637
1.117,1.7056636488996446
1.118,1.7263012933544815
1.119,1.7134027655702084
1.12,1.699214385007508
1.121,1.7134027655702084
1.122,1.7172723239054903
1.123,1.7121129127917811
1.124,1.732750557246618
1.125,1.715982471127063
1.1260000000000001,1.7520983489230275
1.127,1.7649968767073005
1.1280000000000001,1.741779526695609
1.129,1.7778954044915736
1.1300000000000001,1.775315698934719
1.131,1.762417171150446
1.1320000000000001,1.7649968767073005
1.133,1.7559679072583094
1.1340000000000001,1.7533882017014548
1.135,1.749518643366173
1.1360000000000001,1.7146926183486357
1.137,1.7379099683603272
1.1380000000000001,1.7146926183486357
1.139,1.7134027655702084
1.1400000000000001,1.7134027655702084
1.141,1.70308394334279
1.1420000000000001,1.715982471127063
1.143,1.7237215877976269
1.1440000000000001,1.7172723239054903
1.145,1.7546780544798821
1.1460000000000001,1.7314607044681907
1.147,1.762417171150446
1.1480000000000001,1.7804751100484282
1.149,1.7482287905877456
1.1500000000000001,1.7598374655935913
1.151,1.7740258461562917
1.1520000000000001,1.758547612815164
1.153,1.762417171150446
1.154,1.7508084961446002
1.155,1.745649085030891
1.156,1.7353302628034726
1.157,1.70308394334279
1.158,1.7263012933544815
1.159,1.7043737961212173
1.16,1.7082433544564992
1.161,1.7108230600133538
1.162,1.706953501678072
1.163,1.7185621766839176
1.164,1.7314607044681907
1.165,1.7314607044681907
1.166,1.7662867294857278
1.167,1.741779526695609
1.168,1.7662867294857278
1.169,1.7791852572700009
1.17,1.7637070239288732
1.171,1.7675765822641551
1.172,1.7675765822641551
1.173,1.7572577600367367
1.174,1.7508084961446002
1.175,1.728880998911336
1.176,1.7391998211387545
1.177,1.732750557246618
1.178,1.6979245322290808
1.179,1.7211418822407722
1.18,1.7146926183486357
1.181,1.7095332072349265
1.182,1.7134027655702084
1.183,1.7146926183486357
1.184,1.7366201155818999
1.185,1.7404896739171818
1.186,1.732750557246618
1.187,1.7727359933778644
1.188,1.7443592322524637
1.189,1.7701562878210098
1.19,1.7688664350425825
1.191,1.7598374655935913
1.192,1.7637070239288732
1.193,1.762417171150446
1.194,1.7404896739171818
1.195,1.7508084961446002
1.196,1.7134027655702084
1.197,1.7275911461329088
1.198,1.7237215877976269
1.199,1.6966346794506535
1.2,1.706953501678072
1.201,1.7121129127917811
1.202,1.7082433544564992
1.203,1.7211418822407722
1.204,1.7095332072349265
1.205,1.7508084961446002
1.206,1.7443592322524637
1.207,1.7443592322524637
1.208,1.7778954044915736
1.209,1.7443592322524637
1.21,1.7701562878210098
1.211,1.7701562878210098
1.212,1.7572577600367367
1.213,1.7572577600367367
1.214,1.741779526695609
1.215,1.7237215877976269
1.216,1.7443592322524637
1.217,1.7056636488996446
1.218,1.7185621766839176
1.219,1.719852029462345
1.22,1.70308394334279
1.221,1.7095332072349265
1.222,1.719852029462345
1.223,1.715982471127063
1.224,1.7430693794740364
1.225,1.7250114405760542
1.226,1.762417171150446
1.227,1.7520983489230275
1.228,1.749518643366173
1.229,1.7817649628268555
1.23,1.7688664350425825
1.231,1.7675765822641551
1.232,1.7662867294857278
1.233,1.7546780544798821
1.234,1.7598374655935913
1.235,1.745649085030891
1.236,1.7211418822407722
1.237,1.7366201155818999
1.238,1.699214385007508
1.239,1.715982471127063
1.24,1.7185621766839176
1.241,1.70308394334279
1.242,1.7146926183486357
1.243,1.7237215877976269
1.244,1.7366201155818999
1.245,1.7443592322524637
1.246,1.7263012933544815
1.247,1.7740258461562917
1.248,1.7572577600367367
1.249,1.7572577600367367
1.25,1.771446140599437
1.2510000000000001,1.7675765822641551
1.252,1.7611273183720186
1.2530000000000001,1.7598374655935913
1.254,1.728880998911336
1.2550000000000001,1.7688664350425825
1.256,1.7211418822407722
1.2570000000000001,1.7146926183486357
1.258,1.7301708516897634
1.2590000000000001,1.6940549738937989
1.26,1.7082433544564992
1.2610000000000001,1.7224317350191996
1.262,1.706953501678072
1.2630000000000001,1.7211418822407722
1.264,1.7211418822407722
1.2650000000000001,1.7520983489230275
1.266,1.7649968767073005
1.2670000000000001,1.7379099683603272
1.268,1.771446140599437
1.2690000000000001,1.7688664350425825
1.27,1.7637070239288732
1.2710000000000001,1.7662867294857278
1.272,1.7675765822641551
1.2730000000000001,1.7546780544798821
1.274,1.7598374655935913
1.2750000000000001,1.7134027655702084
1.276,1.7443592322524637
1.2770000000000001,1.7314607044681907
1.278,1.686315857223235
1.2790000000000001,1.7314607044681907
1.28,1.7134027655702084
1.281,1.715982471127063
1.282,1.7211418822407722
1.283,1.7185621766839176
1.284,1.7353302628034726
1.285,1.7443592322524637
1.286,1.7482287905877456
1.287,1.7701562878210098
1.288,1.745649085030891
1.289,1.771446140599437
1.29,1.7727359933778644
1.291,1.7649968767073005
1.292,1.7675765822641551
1.293,1.7598374655935913
1.294,1.7391998211387545
1.295,1.7559679072583094
1.296,1.70308394334279
1.297,1.7211418822407722
1.298,1.7224317350191996
1.299,1.6979245322290808
1.3,1.7095332072349265
1.301,1.7185621766839176
1.302,1.7005042377859354
1.303,1.7237215877976269
1.304,1.7250114405760542
1.305,1.7469389378093183
1.306,1.7546780544798821
1.307,1.7404896739171818
1.308,1.7740258461562917
1.309,1.758547612815164
1.31,1.7649968767073005
1.311,1.7598374655935913
1.312,1.7598374655935913
1.313,1.7520983489230275
1.314,1.745649085030891
1.315,1.715982471127063
1.316,1.7366201155818999
1.317,1.7134027655702084
1.318,1.7082433544564992
1.319,1.728880998911336
1.32,1.7082433544564992
1.321,1.7134027655702084
1.322,1.7172723239054903
1.323,1.7172723239054903
1.324,1.749518643366173
1.325,1.7340404100250453
1.326,1.7508084961446002
1.327,1.775315698934719
1.328,1.749518643366173
1.329,1.758547612815164
1.33,1.7740258461562917
1.331,1.762417171150446
1.332,1.7637070239288732
1.333,1.758547612815164
1.334,1.7391998211387545
1.335,1.7469389378093183
1.336,1.7082433544564992
1.337,1.7275911461329088
1.338,1.7146926183486357
1.339,1.706953501678072
1.34,1.7121129127917811
1.341,1.7134027655702084
1.342,1.719852029462345
1.343,1.7353302628034726
1.344,1.719852029462345
1.345,1.7572577600367367
1.346,1.7508084961446002
1.347,1.7482287905877456
1.348,1.78434466838371
1.349,1.7649968767073005
1.35,1.7688664350425825
1.351,1.7701562878210098
1.352,1.7598374655935913
1.353,1.7520983489230275
1.354,1.7301708516897634
1.355,1.7340404100250453
1.356,1.7314607044681907
1.357,1.7017940905643627
1.358,1.715982471127063
1.359,1.719852029462345
1.36,1.70308394334279
1.361,1.7095332072349265
1.362,1.7237215877976269
1.363,1.728880998911336
1.364,1.7520983489230275
1.365,1.7263012933544815
1.366,1.762417171150446
1.367,1.7598374655935913
1.368,1.7572577600367367
1.369,1.7637070239288732
1.37,1.7740258461562917
1.371,1.758547612815164
1.372,1.7598374655935913
1.373,1.7469389378093183
1.374,1.7482287905877456
1.375,1.7224317350191996
1.3760000000000001,1.7172723239054903
1.377,1.7340404100250453
1.3780000000000001,1.6940549738937989
1.379,1.7134027655702084
1.3800000000000001,1.719852029462345
1.381,1.7108230600133538
1.3820000000000001,1.7121129127917811
1.383,1.7172723239054903
1.3840000000000001,1.7404896739171818
1.385,1.7649968767073005
1.3860000000000001,1.7353302628034726
1.387,1.7727359933778644
1.3880000000000001,1.762417171150446
1.389,1.758547612815164
1.3900000000000001,1.7637070239288732
1.391,1.7675765822641551
1.3920000000000001,1.7533882017014548
1.393,1.7598374655935913
1.3940000000000001,1.7211418822407722
1.395,1.7404896739171818
1.3960000000000001,1.7172723239054903
1.397,1.7121129127917811
1.3980000000000001,1.7237215877976269
1.399,1.70308394334279
1.4000000000000001,1.7146926183486357
1.401,1.7185621766839176
1.4020000000000001,1.7146926183486357
1.403,1.7430693794740364
1.4040000000000001,1.7237215877976269
1.405,1.7508084961446002
1.4060000000000001,1.7701562878210098
1.407,1.7430693794740364
1.408,1.7778954044915736
1.409,1.7740258461562917
1.41,1.7598374655935913
1.411,1.7649968767073005
1.412,1.7598374655935913
1.413,1.7520983489230275
1.414,1.7469389378093183
1.415,1.7108230600133538
1.416,1.7224317350191996
1.417,1.7082433544564992
1.418,1.70308394334279
1.419,1.7017940905643627
1.42,1.706953501678072
1.421,1.7082433544564992
1.422,1.7172723239054903
1.423,1.7108230600133538
1.424,1.7469389378093183
1.425,1.7404896739171818
1.426,1.745649085030891
1.427,1.7727359933778644
1.428,1.7430693794740364
1.429,1.7662867294857278
1.43,1.762417171150446
1.431,1.7546780544798821
1.432,1.7520983489230275
1.433,1.7340404100250453
1.434,1.7250114405760542
1.435,1.7340404100250453
1.436,1.699214385007508
1.437,1.706953501678072
1.438,1.7056636488996446
1.439,1.690185415558517
1.44,1.7005042377859354
1.441,1.7082433544564992
1.442,1.706953501678072
1.443,1.732750557246618
1.444,1.7134027655702084
1.445,1.7520983489230275
1.446,1.7353302628034726
1.447,1.741779526695609
1.448,1.762417171150446
1.449,1.7559679072583094
1.45,1.749518643366173
1.451,1.7443592322524637
1.452,1.7404896739171818
1.453,1.7443592322524637
1.454,1.7172723239054903
1.455,1.6979245322290808
1.456,1.7134027655702084
1.457,1.6953448266722262
1.458,1.6888955627800897
1.459,1.699214385007508
1.46,1.686315857223235
1.461,1.6966346794506535
1.462,1.7108230600133538
1.463,1.7095332072349265
1.464,1.7237215877976269
1.465,1.7185621766839176
1.466,1.741779526695609
1.467,1.745649085030891
1.468,1.7301708516897634
1.469,1.7533882017014548
1.47,1.741779526695609
1.471,1.741779526695609
1.472,1.7340404100250453
1.473,1.7082433544564992
1.474,1.6747071822173893
1.475,1.7185621766839176
1.476,1.6759970349958166
1.477,1.7005042377859354
1.478,1.6798665933310986
1.479,1.6747071822173893
1.48,1.690185415558517
1.481,1.690185415558517
1.482,1.6966346794506535
1.483,1.7146926183486357
1.484,1.7056636488996446
1.485,1.7314607044681907
1.486,1.7301708516897634
1.487,1.7314607044681907
1.488,1.7533882017014548
1.489,1.7391998211387545
1.49,1.7340404100250453
1.491,1.7353302628034726
1.492,1.7211418822407722
1.493,1.7275911461329088
1.494,1.7017940905643627
1.495,1.6914752683369443
1.496,1.7017940905643627
1.497,1.664388359989971
1.498,1.6876057100016624
1.499,1.6811564461095259
1.5,1.6708376238821074
1.5010000000000001,1.6837361516663805
1.502,1.6966346794506535
1.5030000000000001,1.6940549738937989
1.504,1.719852029462345
1.5050000000000001,1.7017940905643627
1.506,1.728880998911336
1.5070000000000001,1.7391998211387545
1.508,1.7172723239054903
1.5090000000000001,1.732750557246618
1.51,1.7340404100250453
1.5110000000000001,1.7250114405760542
1.512,1.719852029462345
1.5130000000000001,1.6876057100016624
1.514,1.7121129127917811
1.5150000000000001,1.686315857223235
1.516,1.6682579183252528
1.5170000000000001,1.690185415558517
1.518,1.6553593905409798
1.5190000000000001,1.6785767405526713
1.52,1.677286887774244
1.5210000000000001,1.673417329438962
1.522,1.6850260044448078
1.5230000000000001,1.6837361516663805
1.524,1.7082433544564992
1.5250000000000001,1.7275911461329088
1.526,1.6966346794506535
1.5270000000000001,1.7340404100250453
1.528,1.7301708516897634
1.5290000000000001,1.7250114405760542
1.53,1.7250114405760542
1.5310000000000001,1.7172723239054903
1.532,1.706953501678072
1.5330000000000001,1.7134027655702084
1.534,1.6721274766605347
1.5350000000000001,1.6927651211153716
1.536,1.6785767405526713
1.537,1.6630985072115436
1.538,1.6759970349958166
1.539,1.6695477711036801
1.54,1.6721274766605347
1.541,1.6759970349958166
1.542,1.6618086544331163
1.543,1.7095332072349265
1.544,1.6914752683369443
1.545,1.706953501678072
1.546,1.7366201155818999
1.547,1.7043737961212173
1.548,1.7146926183486357
1.549,1.7237215877976269
1.55,1.715982471127063
1.551,1.7185621766839176
1.552,1.7108230600133538
1.553,1.6914752683369443
1.554,1.6979245322290808
1.555,1.660518801654689
1.556,1.6747071822173893
1.557,1.6682579183252528
1.558,1.6553593905409798
1.559,1.6592289488762617
1.56,1.6669680655468255
1.561,1.6708376238821074
1.562,1.6927651211153716
1.563,1.6747071822173893
1.564,1.7185621766839176
1.565,1.699214385007508
1.566,1.70308394334279
1.567,1.7301708516897634
1.568,1.7211418822407722
1.569,1.7211418822407722
1.57,1.7172723239054903
1.571,1.706953501678072
1.572,1.7043737961212173
1.573,1.6798665933310986
1.574,1.6798665933310986
1.575,1.686315857223235
1.576,1.651489832205698
1.577,1.673417329438962
1.578,1.6695477711036801
1.579,1.6540695377625525
1.58,1.6682579183252528
1.581,1.6708376238821074
1.582,1.686315857223235
1.583,1.6940549738937989
1.584,1.6785767405526713
1.585,1.7185621766839176
1.586,1.6966346794506535
1.587,1.7121129127917811
1.588,1.715982471127063
1.589,1.7108230600133538
1.59,1.7146926183486357
1.591,1.7108230600133538
1.592,1.686315857223235
1.593,1.70308394334279
1.594,1.6630985072115436
1.595,1.673417329438962
1.596,1.677286887774244
1.597,1.6398811571998522
1.598,1.6553593905409798
1.599,1.6669680655468255
1.6,1.6527796849841252
1.601,1.6656782127683982
1.602,1.6540695377625525
1.603,1.6979245322290808
1.604,1.6953448266722262
1.605,1.6888955627800897
1.606,1.7211418822407722
1.607,1.6966346794506535
1.608,1.706953501678072
1.609,1.7146926183486357
1.61,1.7017940905643627
1.611,1.7017940905643627
1.612,1.686315857223235
1.613,1.6759970349958166
1.614,1.690185415558517
1.615,1.6501999794272706
1.616,1.6669680655468255
1.617,1.660518801654689
1.618,1.643750715535134
1.619,1.656649243319407
1.62,1.660518801654689
1.621,1.660518801654689
1.622,1.6850260044448078
1.623,1.6630985072115436
1.624,1.7005042377859354
1.625,1.7017940905643627
1.6260000000000001,1.6914752683369443
1.627,1.7211418822407722
1.6280000000000001,1.7082433544564992
1.629,1.7082433544564992
1.6300000000000001,1.7082433544564992
1.631,1.699214385007508
1.6320000000000001,1.699214385007508
1.633,1.6708376238821074
1.6340000000000001,1.6656782127683982
1.635,1.677286887774244
1.6360000000000001,1.6373014516429976
1.637,1.6695477711036801
1.6380000000000001,1.660518801654689
1.639,1.6424608627567068
1.6400000000000001,1.6553593905409798
1.641,1.664388359989971
1.6420000000000001,1.6811564461095259
1.643,1.6927651211153716
1.6440000000000001,1.6759970349958166
1.645,1.7108230600133538
1.6460000000000001,1.699214385007508
1.647,1.7017940905643627
1.6480000000000001,1.7082433544564992
1.649,1.7082433544564992
1.6500000000000001,1.7043737961212173
1.651,1.7017940905643627
1.6520000000000001,1.6747071822173893
1.653,1.6940549738937989
1.6540000000000001,1.6540695377625525
1.655,1.660518801654689
1.6560000000000001,1.6630985072115436
1.657,1.634721746086143
1.6580000000000001,1.647620273870416
1.659,1.6579390960978344
1.6600000000000001,1.6501999794272706
1.661,1.6579390960978344
1.6620000000000001,1.6527796849841252
1.663,1.6747071822173893
1.6640000000000001,1.6940549738937989
1.665,1.6837361516663805
1.666,1.7146926183486357
1.667,1.6927651211153716
1.668,1.70308394334279
1.669,1.7056636488996446
1.67,1.699214385007508
1.671,1.6940549738937989
1.672,1.6824462988879532
1.673,1.6656782127683982
1.674,1.6837361516663805
1.675,1.6450405683135614
1.676,1.6618086544331163
1.677,1.6553593905409798
1.678,1.6385913044214249
1.679,1.6450405683135614
1.68,1.6579390960978344
1.681,1.6553593905409798
1.682,1.6837361516663805
1.683,1.6540695377625525
1.684,1.7017940905643627
1.685,1.6940549738937989
1.686,1.686315857223235
1.687,1.719852029462345
1.688,1.7108230600133538
1.689,1.7017940905643627
1.69,1.7043737961212173
1.691,1.6888955627800897
1.692,1.6953448266722262
1.693,1.6721274766605347
1.694,1.6618086544331163
1.695,1.6708376238821074
1.696,1.6334318933077157
1.697,1.664388359989971
1.698,1.651489832205698
1.699,1.643750715535134
1.7,1.6489101266488433
1.701,1.6618086544331163
1.702,1.6811564461095259
1.703,1.690185415558517
1.704,1.6708376238821074
1.705,1.7056636488996446
1.706,1.6966346794506535
1.707,1.6979245322290808
1.708,1.7043737961212173
1.709,1.6979245322290808
1.71,1.6979245322290808
1.711,1.690185415558517
1.712,1.664388359989971
1.713,1.6876057100016624
1.714,1.647620273870416
1.715,1.6553593905409798
1.716,1.656649243319407
1.717,1.6295623349724337
1.718,1.6385913044214249
1.719,1.6527796849841252
1.72,1.643750715535134
1.721,1.6592289488762617
1.722,1.6489101266488433
1.723,1.6876057100016624
1.724,1.6914752683369443
1.725,1.677286887774244
1.726,1.7146926183486357
1.727,1.6927651211153716
1.728,1.6966346794506535
1.729,1.7056636488996446
1.73,1.6953448266722262
1.731,1.6888955627800897
1.732,1.6747071822173893
1.733,1.6695477711036801
1.734,1.6721274766605347
1.735,1.6360115988645703
1.736,1.6527796849841252
1.737,1.6501999794272706
1.738,1.6360115988645703
1.739,1.6463304210919887
1.74,1.656649243319407
1.741,1.6618086544331163
1.742,1.6785767405526713
1.743,1.6618086544331163
1.744,1.70308394334279
1.745,1.6888955627800897
1.746,1.6953448266722262
1.747,1.7108230600133538
1.748,1.7005042377859354
1.749,1.70308394334279
1.75,1.6979245322290808
1.7510000000000001,1.6850260044448078
1.752,1.6927651211153716
1.7530000000000001,1.6501999794272706
1.754,1.6682579183252528
1.7550000000000001,1.6669680655468255
1.756,1.6321420405292884
1.7570000000000001,1.6398811571998522
1.758,1.6489101266488433
1.7590000000000001,1.6385913044214249
1.76,1.651489832205698
1.7610000000000001,1.6398811571998522
1.762,1.6876057100016624
1.7630000000000001,1.6824462988879532
1.764,1.6759970349958166
1.7650000000000001,1.7134027655702084
1.766,1.6824462988879532
1.7670000000000001,1.70308394334279
1.768,1.7082433544564992
1.7690000000000001,1.6953448266722262
1.77,1.6940549738937989
1.7710000000000001,1.6914752683369443
1.772,1.6669680655468255
1.7730000000000001,1.6785767405526713
1.774,1.6424608627567068
1.7750000000000001,1.656649243319407
1.776,1.651489832205698
1.7770000000000001,1.6450405683135614
1.778,1.6463304210919887
1.7790000000000001,1.6527796849841252
1.78,1.6489101266488433
1.7810000000000001,1.6759970349958166
1.782,1.656649243319407
1.7830000000000001,1.6953448266722262
1.784,1.6837361516663805
1.7850000000000001,1.690185415558517
1.786,1.715982471127063
1.7870000000000001,1.7056636488996446
1.788,1.7056636488996446
1.7890000000000001,1.70308394334279
1.79,1.6927651211153716
1.7910000000000001,1.6850260044448078
1.792,1.6618086544331163
1.793,1.6656782127683982
1.794,1.6669680655468255
1.795,1.6360115988645703
1.796,1.6553593905409798
1.797,1.656649243319407
1.798,1.6411710099782795
1.799,1.6489101266488433
1.8,1.6527796849841252
1.801,1.673417329438962
1.802,1.6785767405526713
1.803,1.6695477711036801
1.804,1.706953501678072
1.805,1.6837361516663805
1.806,1.7043737961212173
1.807,1.7095332072349265
1.808,1.7005042377859354
1.809,1.7017940905643627
1.81,1.6953448266722262
1.811,1.6721274766605347
1.812,1.6940549738937989
1.813,1.6501999794272706
1.814,1.6579390960978344
1.815,1.6618086544331163
1.816,1.6295623349724337
1.817,1.634721746086143
1.818,1.6553593905409798
1.819,1.6398811571998522
1.82,1.6553593905409798
1.821,1.6463304210919887
1.822,1.6824462988879532
1.823,1.6850260044448078
1.824,1.677286887774244
1.825,1.7134027655702084
1.826,1.6876057100016624
1.827,1.7043737961212173
1.828,1.7043737961212173
1.829,1.6966346794506535
1.83,1.6927651211153716
1.831,1.6811564461095259
1.832,1.6630985072115436
1.833,1.6824462988879532
1.834,1.6360115988645703
1.835,1.660518801654689
1.836,1.651489832205698
1.837,1.6334318933077157
1.838,1.6424608627567068
1.839,1.6501999794272706
1.84,1.6540695377625525
1.841,1.6824462988879532
1.842,1.6540695377625525
1.843,1.6940549738937989
1.844,1.690185415558517
1.845,1.6914752683369443
1.846,1.7134027655702084
1.847,1.7043737961212173
1.848,1.7017940905643627
1.849,1.7005042377859354
1.85,1.6888955627800897
1.851,1.6927651211153716
1.852,1.6695477711036801
1.853,1.664388359989971
1.854,1.6708376238821074
1.855,1.634721746086143
1.856,1.6656782127683982
1.857,1.6540695377625525
1.858,1.643750715535134
1.859,1.6540695377625525
1.86,1.6618086544331163
1.861,1.677286887774244
1.862,1.7005042377859354
1.863,1.6708376238821074
1.864,1.7095332072349265
1.865,1.6914752683369443
1.866,1.7017940905643627
1.867,1.6979245322290808
1.868,1.70308394334279
1.869,1.7056636488996446
1.87,1.6966346794506535
1.871,1.6695477711036801
1.872,1.6927651211153716
1.873,1.6463304210919887
1.874,1.6630985072115436
1.875,1.6579390960978344
1.8760000000000001,1.6360115988645703
1.877,1.6450405683135614
1.8780000000000001,1.647620273870416
1.879,1.6463304210919887
1.8800000000000001,1.6592289488762617
1.881,1.651489832205698
1.8820000000000001,1.7172723239054903
1.883,1.686315857223235
1.8840000000000001,1.6785767405526713
1.885,1.719852029462345
1.8860000000000001,1.6888955627800897
1.887,1.699214385007508
1.8880000000000001,1.706953501678072
1.889,1.6927651211153716
1.8900000000000001,1.6953448266722262
1.891,1.677286887774244
1.8920000000000001,1.6579390960978344
1.893,1.6785767405526713
1.8940000000000001,1.643750715535134
1.895,1.656649243319407
1.8960000000000001,1.6553593905409798
1.897,1.6398811571998522
1.8980000000000001,1.6411710099782795
1.899,1.656649243319407
1.9000000000000001,1.6553593905409798
1.901,1.6850260044448078
1.9020000000000001,1.664388359989971
1.903,1.7005042377859354
1.9040000000000001,1.690185415558517
1.905,1.6914752683369443
1.9060000000000001,1.7185621766839176
1.907,1.7005042377859354
1.9080000000000001,1.7017940905643627
1.909,1.70308394334279
1.9100000000000001,1.6850260044448078
1.911,1.6953448266722262
1.9120000000000001,1.651489832205698
1.913,1.6630985072115436
1.9140000000000001,1.673417329438962
1.915,1.6269826294155791
1.9160000000000001,1.6553593905409798
1.917,1.6527796849841252
1.9180000000000001,1.6398811571998522
1.919,1.6501999794272706
1.92,1.656649243319407
1.921,1.6824462988879532
1.922,1.6850260044448078
1.923,1.673417329438962
1.924,1.7095332072349265
1.925,1.6914752683369443
1.926,1.7056636488996446
1.927,1.7108230600133538
1.928,1.699214385007508
1.929,1.6927651211153716
1.93,1.6914752683369443
1.931,1.6695477711036801
1.932,1.690185415558517
1.933,1.6424608627567068
1.934,1.6592289488762617
1.935,1.6579390960978344
1.936,1.6269826294155791
1.937,1.6450405683135614
1.938,1.6527796849841252
1.939,1.651489832205698
1.94,1.6630985072115436
1.941,1.6540695377625525
1.942,1.7005042377859354
1.943,1.6837361516663805
1.944,1.686315857223235
1.945,1.7172723239054903
1.946,1.7043737961212173
1.947,1.7005042377859354
1.948,1.7043737961212173
1.949,1.690185415558517
1.95,1.6876057100016624
1.951,1.6682579183252528
1.952,1.6682579183252528
1.953,1.673417329438962
1.954,1.634721746086143
1.955,1.6618086544331163
1.956,1.6630985072115436
1.957,1.6385913044214249
1.958,1.6489101266488433
1.959,1.6540695377625525
1.96,1.6721274766605347
1.961,1.6876057100016624
1.962,1.664388359989971
1.963,1.7082433544564992
1.964,1.6940549738937989
1.965,1.6953448266722262
1.966,1.7017940905643627
1.967,1.7056636488996446
1.968,1.699214385007508
1.969,1.6979245322290808
1.97,1.6837361516663805
1.971,1.6914752683369443
1.972,1.651489832205698
1.973,1.6682579183252528
1.974,1.6682579183252528
1.975,1.630852187750861
1.976,1.6450405683135614
1.977,1.6553593905409798
1.978,1.6450405683135614
1.979,1.6540695377625525
1.98,1.6463304210919887
1.981,1.686315857223235
1.982,1.690185415558517
1.983,1.6747071822173893
1.984,1.7108230600133538
1.985,1.6914752683369443
1.986,1.6979245322290808
1.987,1.706953501678072
1.988,1.6979245322290808
1.989,1.6979245322290808
1.99,1.6927651211153716
1.991,1.6656782127683982
1.992,1.6759970349958166
1.993,1.647620273870416
1.994,1.656649243319407
1.995,1.660518801654689
1.996,1.6398811571998522
1.997,1.6411710099782795
1.998,1.6540695377625525
1.999,1.6501999794272706
2.0,1.6811564461095259
2.001,1.656649243319407
2.0020000000000002,1.6953448266722262
2.003,1.699214385007508
2.004,1.6798665933310986
2.005,1.7185621766839176
2.0060000000000002,1.7043737961212173
2.007,1.70308394334279
2.008,1.7017940905643627
2.009,1.6927651211153716
2.0100000000000002,1.699214385007508
2.011,1.673417329438962
2.012,1.6592289488762617
2.013,1.6656782127683982
2.0140000000000002,1.6373014516429976
2.015,1.656649243319407
2.016,1.6463304210919887
2.017,1.643750715535134
2.0180000000000002,1.6489101266488433
2.019,1.6618086544331163
2.02,1.6682579183252528
2.021,1.6850260044448078
2.0220000000000002,1.6630985072115436
2.023,1.7043737961212173
2.024,1.6966346794506535
2.025,1.6953448266722262
2.0260000000000002,1.706953501678072
2.027,1.706953501678072
2.028,1.70308394334279
2.029,1.6979245322290808
2.0300000000000002,1.6669680655468255
2.031,1.6888955627800897
2.032,1.6592289488762617
2.033,1.6540695377625525
2.0340000000000003,1.6669680655468255
2.035,1.6321420405292884
2.036,1.647620273870416
2.037,1.651489832205698
2.0380000000000003,1.6450405683135614
2.039,1.6579390960978344
2.04,1.6527796849841252
2.041,1.6940549738937989
2.0420000000000003,1.6940549738937989
2.043,1.6759970349958166
2.044,1.7121129127917811
2.045,1.6876057100016624
2.0460000000000003,1.7005042377859354
2.047,1.70308394334279
2.048,1.6979245322290808
2.049,1.6966346794506535
2.05,1.686315857223235
2.051,1.6553593905409798
2.052,1.6811564461095259
2.053,1.6450405683135614
2.054,1.6527796849841252
2.055,1.6553593905409798
2.056,1.6450405683135614
2.057,1.647620273870416
2.058,1.6540695377625525
2.059,1.6540695377625525
2.06,1.6876057100016624
2.061,1.6747071822173893
2.062,1.6953448266722262
2.063,1.706953501678072
2.064,1.6824462988879532
2.065,1.7134027655702084
2.066,1.7095332072349265
2.067,1.6979245322290808
2.068,1.699214385007508
2.069,1.690185415558517
2.07,1.6927651211153716
2.071,1.6824462988879532
2.072,1.6463304210919887
2.073,1.6708376238821074
2.074,1.6373014516429976
2.075,1.6489101266488433
2.076,1.6540695377625525
2.077,1.6398811571998522
2.078,1.6501999794272706
2.079,1.6630985072115436
2.08,1.6630985072115436
2.081,1.7017940905643627
2.082,1.6695477711036801
2.083,1.7056636488996446
2.084,1.699214385007508
2.085,1.6888955627800897
2.086,1.7056636488996446
2.087,1.7043737961212173
2.088,1.6953448266722262
2.089,1.6940549738937989
2.09,1.660518801654689
2.091,1.6630985072115436
2.092,1.6579390960978344
2.093,1.6424608627567068
2.094,1.6656782127683982
2.095,1.6269826294155791
2.096,1.6411710099782795
2.097,1.6592289488762617
2.098,1.6424608627567068
2.099,1.6579390960978344
2.1,1.6592289488762617
2.101,1.6785767405526713
2.102,1.6966346794506535
2.103,1.677286887774244
2.104,1.7121129127917811
2.105,1.7056636488996446
2.106,1.6940549738937989
2.107,1.7005042377859354
2.108,1.70308394334279
2.109,1.6876057100016624
2.11,1.686315857223235
2.111,1.6527796849841252
2.112,1.6747071822173893
2.113,1.647620273870416
2.114,1.6489101266488433
2.115,1.656649243319407
2.116,1.6398811571998522
2.117,1.6501999794272706
2.118,1.6579390960978344
2.119,1.6579390960978344
2.12,1.6927651211153716
2.121,1.6656782127683982
2.122,1.6966346794506535
2.123,1.7121129127917811
2.124,1.686315857223235
2.125,1.715982471127063
2.126,1.7146926183486357
2.1270000000000002,1.7005042377859354
2.128,1.70308394334279
2.129,1.6966346794506535
2.13,1.6927651211153716
2.1310000000000002,1.677286887774244
2.132,1.656649243319407
2.133,1.677286887774244
2.134,1.6424608627567068
2.1350000000000002,1.6579390960978344
2.136,1.6630985072115436
2.137,1.6501999794272706
2.138,1.6592289488762617
2.1390000000000002,1.6747071822173893
2.14,1.6798665933310986
2.141,1.699214385007508
2.142,1.6798665933310986
2.1430000000000002,1.7185621766839176
2.144,1.7172723239054903
2.145,1.6979245322290808
2.146,1.7095332072349265
2.1470000000000002,1.719852029462345
2.148,1.7121129127917811
2.149,1.7056636488996446
2.15,1.6747071822173893
2.1510000000000002,1.6914752683369443
2.152,1.6695477711036801
2.153,1.6618086544331163
2.154,1.6824462988879532
2.1550000000000002,1.6463304210919887
2.156,1.6682579183252528
2.157,1.6785767405526713
2.158,1.6669680655468255
2.1590000000000003,1.6940549738937989
2.16,1.6811564461095259
2.161,1.7095332072349265
2.162,1.715982471127063
2.1630000000000003,1.6927651211153716
2.164,1.7314607044681907
2.165,1.7263012933544815
2.166,1.7172723239054903
2.1670000000000003,1.7237215877976269
2.168,1.715982471127063
2.169,1.7134027655702084
2.17,1.699214385007508
2.1710000000000003,1.677286887774244
2.172,1.6927651211153716
2.173,1.6747071822173893
2.174,1.6759970349958166
2.1750000000000003,1.673417329438962
2.176,1.6682579183252528
2.177,1.6759970349958166
2.178,1.6837361516663805
2.179,1.6850260044448078
2.18,1.719852029462345
2.181,1.6914752683369443
2.182,1.732750557246618
2.183,1.7301708516897634
2.184,1.7146926183486357
2.185,1.7340404100250453
2.186,1.7353302628034726
2.187,1.7275911461329088
2.188,1.7301708516897634
2.189,1.7185621766839176
2.19,1.7211418822407722
2.191,1.7043737961212173
2.192,1.6811564461095259
2.193,1.7043737961212173
2.194,1.6695477711036801
2.195,1.6759970349958166
2.196,1.690185415558517
2.197,1.6798665933310986
2.198,1.690185415558517
2.199,1.6940549738937989
2.2,1.706953501678072
2.201,1.7340404100250453
2.202,1.7108230600133538
2.203,1.7469389378093183
2.204,1.7404896739171818
2.205,1.7391998211387545
2.206,1.7443592322524637
2.207,1.741779526695609
2.208,1.732750557246618
2.209,1.7404896739171818
2.21,1.6979245322290808
2.211,1.7224317350191996
2.212,1.70308394334279
2.213,1.6850260044448078
2.214,1.7095332072349265
2.215,1.6876057100016624
2.216,1.6876057100016624
2.217,1.699214385007508
2.218,1.6927651211153716
2.219,1.719852029462345
2.22,1.7185621766839176
2.221,1.7224317350191996
2.222,1.749518643366173
2.223,1.732750557246618
2.224,1.7469389378093183
2.225,1.7533882017014548
2.226,1.7469389378093183
2.227,1.745649085030891
2.228,1.7443592322524637
2.229,1.7275911461329088
2.23,1.7379099683603272
2.231,1.690185415558517
2.232,1.719852029462345
2.233,1.706953501678072
2.234,1.6837361516663805
2.235,1.70308394334279
2.236,1.6914752683369443
2.237,1.6966346794506535
2.238,1.7095332072349265
2.239,1.6979245322290808
2.24,1.745649085030891
2.241,1.7353302628034726
2.242,1.7366201155818999
2.243,1.7675765822641551
2.244,1.7379099683603272
2.245,1.7559679072583094
2.246,1.7559679072583094
2.247,1.7469389378093183
2.248,1.7430693794740364
2.249,1.7224317350191996
2.25,1.7237215877976269
2.251,1.7301708516897634
2.2520000000000002,1.690185415558517
2.253,1.7121129127917811
2.254,1.699214385007508
2.255,1.690185415558517
2.2560000000000002,1.7005042377859354
2.257,1.7005042377859354
2.258,1.7082433544564992
2.259,1.7275911461329088
2.2600000000000002,1.7134027655702084
2.261,1.749518643366173
2.262,1.7340404100250453
2.263,1.745649085030891
2.2640000000000002,1.771446140599437
2.265,1.7482287905877456
2.266,1.7546780544798821
2.267,1.7546780544798821
2.2680000000000002,1.7404896739171818
2.269,1.7482287905877456
2.27,1.7185621766839176
2.271,1.7250114405760542
2.2720000000000002,1.7185621766839176
2.273,1.6850260044448078
2.274,1.7146926183486357
2.275,1.7017940905643627
2.2760000000000002,1.6940549738937989
2.277,1.7005042377859354
2.278,1.7082433544564992
2.279,1.732750557246618
2.2800000000000002,1.732750557246618
2.281,1.7224317350191996
2.282,1.7611273183720186
2.283,1.7366201155818999
2.2840000000000003,1.7559679072583094
2.285,1.7611273183720186
2.286,1.7508084961446002
2.287,1.7469389378093183
2.2880000000000003,1.7443592322524637
2.289,1.719852029462345
2.29,1.7146926183486357
2.291,1.7017940905643627
2.2920000000000003,1.7056636488996446
2.293,1.706953501678072
2.294,1.686315857223235
2.295,1.6940549738937989
2.2960000000000003,1.70308394334279
2.297,1.6953448266722262
2.298,1.7108230600133538
2.299,1.7056636488996446
2.3000000000000003,1.7508084961446002
2.301,1.7353302628034726
2.302,1.732750557246618
2.303,1.7649968767073005
2.3040000000000003,1.7340404100250453
2.305,1.7546780544798821
2.306,1.758547612815164
2.307,1.7443592322524637
2.308,1.7404896739171818
2.309,1.7250114405760542
2.31,1.7134027655702084
2.311,1.732750557246618
2.312,1.6876057100016624
2.313,1.7121129127917811
2.314,1.7005042377859354
2.315,1.690185415558517
2.316,1.6953448266722262
2.317,1.7005042377859354
2.318,1.7121129127917811
2.319,1.7301708516897634
2.32,1.715982471127063
2.321,1.7520983489230275
2.322,1.7391998211387545
2.323,1.7482287905877456
2.324,1.7662867294857278
2.325,1.7546780544798821
2.326,1.749518643366173
2.327,1.749518643366173
2.328,1.7379099683603272
2.329,1.7404896739171818
2.33,1.699214385007508
2.331,1.7146926183486357
2.332,1.7224317350191996
2.333,1.6798665933310986
2.334,1.7108230600133538
2.335,1.7005042377859354
2.336,1.6940549738937989
2.337,1.7043737961212173
2.338,1.7095332072349265
2.339,1.7340404100250453
2.34,1.7301708516897634
2.341,1.7211418822407722
2.342,1.7598374655935913
2.343,1.7404896739171818
2.344,1.7533882017014548
2.345,1.7559679072583094
2.346,1.7520983489230275
2.347,1.749518643366173
2.348,1.741779526695609
2.349,1.7146926183486357
2.35,1.7340404100250453
2.351,1.7005042377859354
2.352,1.7005042377859354
2.353,1.7108230600133538
2.354,1.6759970349958166
2.355,1.6953448266722262
2.356,1.706953501678072
2.357,1.699214385007508
2.358,1.7146926183486357
2.359,1.7056636488996446
2.36,1.7404896739171818
2.361,1.7404896739171818
2.362,1.7353302628034726
2.363,1.7662867294857278
2.364,1.7469389378093183
2.365,1.7520983489230275
2.366,1.749518643366173
2.367,1.745649085030891
2.368,1.7404896739171818
2.369,1.7224317350191996
2.37,1.7056636488996446
2.371,1.7237215877976269
2.372,1.686315857223235
2.373,1.7095332072349265
2.374,1.70308394334279
2.375,1.6824462988879532
2.376,1.6979245322290808
2.3770000000000002,1.7082433544564992
2.378,1.7134027655702084
2.379,1.7404896739171818
2.38,1.7108230600133538
2.3810000000000002,1.7482287905877456
2.382,1.7482287905877456
2.383,1.7391998211387545
2.384,1.7482287905877456
2.3850000000000002,1.7546780544798821
2.386,1.7482287905877456
2.387,1.7482287905877456
2.388,1.7301708516897634
2.3890000000000002,1.7353302628034726
2.39,1.7146926183486357
2.391,1.7017940905643627
2.392,1.7121129127917811
2.3930000000000002,1.6824462988879532
2.394,1.6966346794506535
2.395,1.7005042377859354
2.396,1.6927651211153716
2.3970000000000002,1.70308394334279
2.398,1.7056636488996446
2.399,1.7185621766839176
2.4,1.7469389378093183
2.4010000000000002,1.719852029462345
2.402,1.7520983489230275
2.403,1.7546780544798821
2.404,1.745649085030891
2.4050000000000002,1.7520983489230275
2.406,1.749518643366173
2.407,1.7391998211387545
2.408,1.7314607044681907
2.4090000000000003,1.7082433544564992
2.41,1.7224317350191996
2.411,1.7095332072349265
2.412,1.6850260044448078
2.4130000000000003,1.7082433544564992
2.414,1.6966346794506535
2.415,1.690185415558517
2.416,1.6979245322290808
2.4170000000000003,1.699214385007508
2.418,1.728880998911336
2.419,1.7237215877976269
2.42,1.7237215877976269
2.4210000000000003,1.7572577600367367
2.422,1.7237215877976269
2.423,1.7598374655935913
2.424,1.749518643366173
2.4250000000000003,1.745649085030891
2.426,1.749518643366173
2.427,1.7430693794740364
2.428,1.728880998911336
2.4290000000000003,1.745649085030891
2.43,1.6966346794506535
2.431,1.7172723239054903
2.432,1.7095332072349265
2.433,1.6888955627800897
2.434,1.6966346794506535
2.435,1.699214385007508
2.436,1.6966346794506535
2.437,1.7108230600133538
2.438,1.699214385007508
2.439,1.7404896739171818
2.44,1.732750557246618
2.441,1.7391998211387545
2.442,1.7611273183720186
2.443,1.7430693794740364
2.444,1.7611273183720186
2.445,1.7649968767073005
2.446,1.7508084961446002
2.447,1.7508084961446002
2.448,1.7366201155818999
2.449,1.7301708516897634
2.45,1.7404896739171818
2.451,1.7017940905643627
2.452,1.7108230600133538
2.453,1.7134027655702084
2.454,1.6888955627800897
2.455,1.7095332072349265
2.456,1.7146926183486357
2.457,1.7121129127917811
2.458,1.7379099683603272
2.459,1.7172723239054903
2.46,1.7482287905877456
2.461,1.7598374655935913
2.462,1.7391998211387545
2.463,1.7740258461562917
2.464,1.7675765822641551
2.465,1.7572577600367367
2.466,1.7559679072583094
2.467,1.7508084961446002
2.468,1.7469389378093183
2.469,1.7443592322524637
2.47,1.7121129127917811
2.471,1.7275911461329088
2.472,1.7043737961212173
2.473,1.7056636488996446
2.474,1.7056636488996446
2.475,1.706953501678072
2.476,1.7082433544564992
2.477,1.7172723239054903
2.478,1.7146926183486357
2.479,1.7391998211387545
2.48,1.7301708516897634
2.481,1.7520983489230275
2.482,1.7727359933778644
2.483,1.741779526695609
2.484,1.7637070239288732
2.485,1.7572577600367367
2.486,1.749518643366173
2.487,1.7520983489230275
2.488,1.732750557246618
2.489,1.715982471127063
2.49,1.732750557246618
2.491,1.7017940905643627
2.492,1.7134027655702084
2.493,1.7082433544564992
2.494,1.6979245322290808
2.495,1.7056636488996446
2.496,1.7134027655702084
2.497,1.7146926183486357
2.498,1.7379099683603272
2.499,1.7211418822407722
2.5,1.758547612815164
2.501,1.7508084961446002
2.5020000000000002,1.7508084961446002
2.503,1.7727359933778644
2.504,1.762417171150446
2.505,1.7572577600367367
2.5060000000000002,1.7572577600367367
2.507,1.7482287905877456
2.508,1.7508084961446002
2.509,1.7301708516897634
2.5100000000000002,1.7134027655702084
2.511,1.7263012933544815
2.512,1.690185415558517
2.513,1.7108230600133538
2.5140000000000002,1.7082433544564992
2.515,1.6979245322290808
2.516,1.706953501678072
2.517,1.7237215877976269
2.5180000000000002,1.7250114405760542
2.519,1.7520983489230275
2.52,1.728880998911336
2.521,1.7649968767073005
2.5220000000000002,1.7701562878210098
2.523,1.749518643366173
2.524,1.7611273183720186
2.525,1.762417171150446
2.5260000000000002,1.7546780544798821
2.527,1.7508084961446002
2.528,1.719852029462345
2.529,1.7379099683603272
2.5300000000000002,1.7237215877976269
2.531,1.7017940905643627
2.532,1.7224317350191996
2.533,1.699214385007508
2.5340000000000003,1.7017940905643627
2.535,1.7056636488996446
2.536,1.7095332072349265
2.537,1.7211418822407722
2.5380000000000003,1.7340404100250453
2.539,1.732750557246618
2.54,1.7637070239288732
2.541,1.745649085030891
2.5420000000000003,1.7520983489230275
2.543,1.7727359933778644
2.544,1.7611273183720186
2.545,1.7611273183720186
2.5460000000000003,1.758547612815164
2.547,1.745649085030891
2.548,1.745649085030891
2.549,1.7185621766839176
2.5500000000000003,1.728880998911336
2.551,1.728880998911336
2.552,1.690185415558517
2.553,1.7134027655702084
2.5540000000000003,1.7121129127917811
2.555,1.70308394334279
2.556,1.7095332072349265
2.557,1.7263012933544815
2.5580000000000003,1.7301708516897634
2.559,1.7482287905877456
2.56,1.7314607044681907
2.561,1.7649968767073005
2.562,1.7598374655935913
2.563,1.7508084961446002
2.564,1.7611273183720186
2.565,1.7598374655935913
2.566,1.7559679072583094
2.567,1.7469389378093183
2.568,1.719852029462345
2.569,1.7353302628034726
2.57,1.7224317350191996
2.571,1.7005042377859354
2.572,1.719852029462345
2.573,1.7043737961212173
2.574,1.70308394334279
2.575,1.706953501678072
2.576,1.706953501678072
2.577,1.7340404100250453
2.578,1.7314607044681907
2.579,1.7314607044681907
2.58,1.7662867294857278
2.581,1.7379099683603272
2.582,1.7649968767073005
2.583,1.7637070239288732
2.584,1.762417171150446
2.585,1.7598374655935913
2.586,1.758547612815164
2.587,1.7430693794740364
2.588,1.7520983489230275
2.589,1.7185621766839176
2.59,1.7121129127917811
2.591,1.7301708516897634
2.592,1.6914752683369443
2.593,1.7056636488996446
2.594,1.7082433544564992
2.595,1.7005042377859354
2.596,1.7134027655702084
2.597,1.7172723239054903
2.598,1.728880998911336
2.599,1.7508084961446002
2.6,1.7314607044681907
2.601,1.7637070239288732
2.602,1.7675765822641551
2.603,1.762417171150446
2.604,1.7637070239288732
2.605,1.7611273183720186
2.606,1.7533882017014548
2.607,1.7469389378093183
2.608,1.7237215877976269
2.609,1.7391998211387545
2.61,1.7263012933544815
2.611,1.6966346794506535
2.612,1.715982471127063
2.613,1.7121129127917811
2.614,1.7043737961212173
2.615,1.7082433544564992
2.616,1.715982471127063
2.617,1.728880998911336
2.618,1.7430693794740364
2.619,1.7250114405760542
2.62,1.7572577600367367
2.621,1.7572577600367367
2.622,1.7508084961446002
2.623,1.7572577600367367
2.624,1.7675765822641551
2.625,1.758547612815164
2.626,1.7572577600367367
2.6270000000000002,1.728880998911336
2.628,1.741779526695609
2.629,1.7250114405760542
2.63,1.706953501678072
2.6310000000000002,1.7263012933544815
2.632,1.6940549738937989
2.633,1.7082433544564992
2.634,1.7134027655702084
2.6350000000000002,1.70308394334279
2.636,1.7146926183486357
2.637,1.7211418822407722
2.638,1.732750557246618
2.6390000000000002,1.7559679072583094
2.64,1.7366201155818999
2.641,1.7637070239288732
2.642,1.7701562878210098
2.6430000000000002,1.758547612815164
2.644,1.758547612815164
2.645,1.7598374655935913
2.646,1.7508084961446002
2.6470000000000002,1.758547612815164
2.648,1.7095332072349265
2.649,1.7340404100250453
2.65,1.7250114405760542
2.6510000000000002,1.6953448266722262
2.652,1.7224317350191996
2.653,1.715982471127063
2.654,1.7017940905643627
2.6550000000000002,1.7146926183486357
2.656,1.7121129127917811
2.657,1.7275911461329088
2.658,1.7366201155818999
2.6590000000000003,1.7366201155818999
2.66,1.7675765822641551
2.661,1.7391998211387545
2.662,1.7662867294857278
2.6630000000000003,1.7662867294857278
2.664,1.7598374655935913
2.665,1.7559679072583094
2.666,1.7533882017014548
2.6670000000000003,1.7404896739171818
2.668,1.7469389378093183
2.669,1.6966346794506535
2.67,1.7250114405760542
2.6710000000000003,1.7134027655702084
2.672,1.6953448266722262
2.673,1.7043737961212173
2.674,1.7082433544564992
2.6750000000000003,1.706953501678072
2.676,1.715982471127063
2.677,1.7095332072349265
2.678,1.7559679072583094
2.6790000000000003,1.7391998211387545
2.68,1.745649085030891
2.681,1.7701562878210098
2.682,1.7508084961446002
2.6830000000000003,1.7637070239288732
2.684,1.7598374655935913
2.685,1.7572577600367367
2.686,1.7533882017014548
2.6870000000000003,1.7379099683603272
2.688,1.745649085030891
2.689,1.7379099683603272
2.69,1.70308394334279
2.691,1.719852029462345
2.692,1.7121129127917811
2.693,1.6966346794506535
2.694,1.7082433544564992
2.695,1.7108230600133538
2.696,1.7121129127917811
2.697,1.7430693794740364
2.698,1.7172723239054903
2.699,1.7508084961446002
2.7,1.7611273183720186
2.701,1.745649085030891
2.702,1.7688664350425825
2.703,1.7662867294857278
2.704,1.7559679072583094
2.705,1.7572577600367367
2.706,1.7508084961446002
2.707,1.7469389378093183
2.708,1.7366201155818999
2.709,1.7108230600133538
2.71,1.7237215877976269
2.711,1.7017940905643627
2.712,1.7043737961212173
2.713,1.699214385007508
2.714,1.7017940905643627
2.715,1.7108230600133538
2.716,1.7224317350191996
2.717,1.7224317350191996
2.718,1.7675765822641551
2.719,1.7366201155818999
2.72,1.7520983489230275
2.721,1.7675765822641551
2.722,1.7469389378093183
2.723,1.7637070239288732
2.724,1.7637070239288732
2.725,1.7520983489230275
2.726,1.749518643366173
2.727,1.7250114405760542
2.728,1.7224317350191996
2.729,1.7314607044681907
2.73,1.6876057100016624
2.731,1.7172723239054903
2.732,1.7056636488996446
2.733,1.6979245322290808
2.734,1.7095332072349265
2.735,1.7134027655702084
2.736,1.7146926183486357
2.737,1.7366201155818999
2.738,1.7237215877976269
2.739,1.7598374655935913
2.74,1.7637070239288732
2.741,1.7508084961446002
2.742,1.7727359933778644
2.743,1.762417171150446
2.744,1.758547612815164
2.745,1.7611273183720186
2.746,1.7443592322524637
2.747,1.745649085030891
2.748,1.728880998911336
2.749,1.706953501678072
2.75,1.728880998911336
2.751,1.686315857223235
2.7520000000000002,1.7134027655702084
2.753,1.7108230600133538
2.754,1.6953448266722262
2.755,1.7082433544564992
2.7560000000000002,1.7275911461329088
2.757,1.7237215877976269
2.758,1.749518643366173
2.759,1.7263012933544815
2.7600000000000002,1.7611273183720186
2.761,1.7611273183720186
2.762,1.7508084961446002
2.763,1.7637070239288732
2.7640000000000002,1.7598374655935913
2.765,1.7546780544798821
2.766,1.7508084961446002
2.767,1.7237215877976269
2.7680000000000002,1.732750557246618
2.769,1.7211418822407722
2.77,1.6914752683369443
2.771,1.7211418822407722
2.7720000000000002,1.6953448266722262
2.773,1.706953501678072
2.774,1.7095332072349265
2.775,1.706953501678072
2.7760000000000002,1.7224317350191996
2.777,1.7301708516897634
2.778,1.732750557246618
2.779,1.7701562878210098
2.7800000000000002,1.7391998211387545
2.781,1.7662867294857278
2.782,1.7791852572700009
2.783,1.7598374655935913
2.7840000000000003,1.762417171150446
2.785,1.7533882017014548
2.786,1.7404896739171818
2.787,1.7508084961446002
2.7880000000000003,1.7056636488996446
2.789,1.728880998911336
2.79,1.719852029462345
2.791,1.6966346794506535
2.7920000000000003,1.699214385007508
2.793,1.7056636488996446
2.794,1.706953501678072
2.795,1.7146926183486357
2.7960000000000003,1.7017940905643627
2.797,1.7379099683603272
2.798,1.741779526695609
2.799,1.7301708516897634
2.8000000000000003,1.7688664350425825
2.801,1.7508084961446002
2.802,1.7559679072583094
2.803,1.762417171150446
2.8040000000000003,1.762417171150446
2.805,1.749518643366173
2.806,1.7469389378093183
2.807,1.715982471127063
2.8080000000000003,1.7404896739171818
2.809,1.7211418822407722
2.81,1.6927651211153716
2.811,1.7172723239054903
2.8120000000000003,1.7056636488996446
2.813,1.6966346794506535
2.814,1.715982471127063
2.815,1.70308394334279
2.816,1.7366201155818999
2.817,1.7379099683603272
2.818,1.7263012933544815
2.819,1.7611273183720186
2.82,1.745649085030891
2.821,1.7611273183720186
2.822,1.7598374655935913
2.823,1.7611273183720186
2.824,1.7611273183720186
2.825,1.7546780544798821
2.826,1.7379099683603272
2.827,1.745649085030891
2.828,1.7185621766839176
2.829,1.7146926183486357
2.83,1.728880998911336
2.831,1.6914752683369443
2.832,1.706953501678072
2.833,1.7108230600133538
2.834,1.7043737961212173
2.835,1.7108230600133538
2.836,1.7146926183486357
2.837,1.728880998911336
2.838,1.7533882017014548
2.839,1.7366201155818999
2.84,1.762417171150446
2.841,1.7701562878210098
2.842,1.7572577600367367
2.843,1.762417171150446
2.844,1.762417171150446
2.845,1.749518643366173
2.846,1.758547612815164
2.847,1.715982471127063
2.848,1.7250114405760542
2.849,1.7224317350191996
2.85,1.6979245322290808
2.851,1.7172723239054903
2.852,1.7082433544564992
2.853,1.7017940905643627
2.854,1.706953501678072
2.855,1.7146926183486357
2.856,1.7301708516897634
2.857,1.7391998211387545
2.858,1.7263012933544815
2.859,1.762417171150446
2.86,1.7533882017014548
2.861,1.7559679072583094
2.862,1.762417171150446
2.863,1.7649968767073005
2.864,1.7611273183720186
2.865,1.7572577600367367
2.866,1.7263012933544815
2.867,1.741779526695609
2.868,1.732750557246618
2.869,1.7082433544564992
2.87,1.7263012933544815
2.871,1.7043737961212173
2.872,1.7095332072349265
2.873,1.7134027655702084
2.874,1.706953501678072
2.875,1.719852029462345
2.876,1.7314607044681907
2.8770000000000002,1.7224317350191996
2.878,1.762417171150446
2.879,1.7430693794740364
2.88,1.7598374655935913
2.8810000000000002,1.7830548156052828
2.882,1.7688664350425825
2.883,1.7675765822641551
2.884,1.7662867294857278
2.8850000000000002,1.7559679072583094
2.886,1.762417171150446
2.887,1.7404896739171818
2.888,1.7301708516897634
2.8890000000000002,1.7379099683603272
2.89,1.7017940905643627
2.891,1.7250114405760542
2.892,1.7211418822407722
2.8930000000000002,1.7095332072349265
2.894,1.7185621766839176
2.895,1.728880998911336
2.896,1.741779526695609
2.8970000000000002,1.775315698934719
2.898,1.7379099683603272
2.899,1.7766055517131463
2.9,1.771446140599437
2.9010000000000002,1.7649968767073005
2.902,1.7791852572700009
2.903,1.7817649628268555
2.904,1.7701562878210098
2.9050000000000002,1.7675765822641551
2.906,1.7391998211387545
2.907,1.7404896739171818
2.908,1.7391998211387545
2.9090000000000003,1.7211418822407722
2.91,1.7430693794740364
2.911,1.7108230600133538
2.912,1.719852029462345
2.9130000000000003,1.7275911461329088
2.914,1.7263012933544815
2.915,1.7353302628034726
2.916,1.7533882017014548
2.9170000000000003,1.7533882017014548
2.918,1.775315698934719
2.919,1.7572577600367367
2.92,1.7778954044915736
2.9210000000000003,1.7933736378327012
2.922,1.7817649628268555
2.923,1.78434466838371
2.924,1.7791852572700009
2.9250000000000003,1.7701562878210098
2.926,1.775315698934719
2.927,1.7275911461329088
2.928,1.7391998211387545
2.9290000000000003,1.749518643366173
2.93,1.7095332072349265
2.931,1.7404896739171818
2.932,1.7353302628034726
2.9330000000000003,1.7250114405760542
2.934,1.7275911461329088
2.935,1.7469389378093183
2.936,1.7520983489230275
2.9370000000000003,1.7688664350425825
2.938,1.7520983489230275
2.939,1.788214226718992
2.94,1.7778954044915736
2.9410000000000003,1.7804751100484282
2.942,1.7830548156052828
2.943,1.7856345211621374
2.944,1.7830548156052828
2.945,1.7817649628268555
2.946,1.7482287905877456
2.947,1.775315698934719
2.948,1.7443592322524637
2.949,1.7263012933544815
2.95,1.749518643366173
2.951,1.7211418822407722
2.952,1.728880998911336
2.953,1.7404896739171818
2.954,1.7366201155818999
2.955,1.7482287905877456
2.956,1.7611273183720186
2.957,1.7508084961446002
2.958,1.792083785054274
2.959,1.7740258461562917
2.96,1.7933736378327012
2.961,1.8024026072816923
2.962,1.7869243739405647
2.963,1.7895040794974193
2.964,1.792083785054274
2.965,1.771446140599437
2.966,1.7778954044915736
2.967,1.7469389378093183
2.968,1.758547612815164
2.969,1.758547612815164
2.97,1.7250114405760542
2.971,1.745649085030891
2.972,1.7391998211387545
2.973,1.732750557246618
2.974,1.741779526695609
2.975,1.7533882017014548
2.976,1.7727359933778644
2.977,1.7791852572700009
2.978,1.7637070239288732
2.979,1.7998229017248377
2.98,1.7895040794974193
2.981,1.7830548156052828
2.982,1.7972431961679831
2.983,1.7946634906111285
2.984,1.7895040794974193
2.985,1.7804751100484282
2.986,1.7520983489230275
2.987,1.7662867294857278
2.988,1.7572577600367367
2.989,1.728880998911336
2.99,1.7559679072583094
2.991,1.7404896739171818
2.992,1.7391998211387545
2.993,1.7482287905877456
2.994,1.7443592322524637
2.995,1.7727359933778644
2.996,1.758547612815164
2.997,1.7740258461562917
2.998,1.8036924600601196
2.999,1.7727359933778644
3.0,1.8062721656169742
3.001,1.804982312838547
3.0020000000000002,1.792083785054274
3.003,1.7959533433895558
3.004,1.792083785054274
3.005,1.7778954044915736
3.0060000000000002,1.7830548156052828
3.007,1.7391998211387545
3.008,1.7649968767073005
3.009,1.7533882017014548
3.0100000000000002,1.7314607044681907
3.011,1.7404896739171818
3.012,1.7430693794740364
3.013,1.745649085030891
3.0140000000000002,1.7520983489230275
3.015,1.7443592322524637
3.016,1.78434466838371
3.017,1.771446140599437
3.0180000000000002,1.7895040794974193
3.019,1.8088518711738288
3.02,1.7830548156052828
3.021,1.7985330489464104
3.0220000000000002,1.8036924600601196
3.023,1.7959533433895558
3.024,1.7907939322758466
3.025,1.7869243739405647
3.0260000000000002,1.7830548156052828
3.027,1.7740258461562917
3.028,1.741779526695609
3.029,1.7637070239288732
3.0300000000000002,1.7353302628034726
3.031,1.7404896739171818
3.032,1.749518643366173
3.033,1.7430693794740364
3.0340000000000003,1.7546780544798821
3.035,1.762417171150446
3.036,1.7662867294857278
3.037,1.7998229017248377
3.0380000000000003,1.7740258461562917
3.039,1.8024026072816923
3.04,1.8114315767306834
3.041,1.7985330489464104
3.0420000000000003,1.8036924600601196
3.043,1.7998229017248377
3.044,1.792083785054274
3.045,1.801112754503265
3.0460000000000003,1.7572577600367367
3.047,1.7778954044915736
3.048,1.7611273183720186
3.049,1.741779526695609
3.0500000000000003,1.7637070239288732
3.051,1.749518643366173
3.052,1.7430693794740364
3.053,1.7520983489230275
3.0540000000000003,1.7520983489230275
3.055,1.7817649628268555
3.056,1.7778954044915736
3.057,1.771446140599437
3.0580000000000003,1.8114315767306834
3.059,1.7856345211621374
3.06,1.8075620183954015
3.061,1.804982312838547
3.0620000000000003,1.801112754503265
3.063,1.7998229017248377
3.064,1.7972431961679831
3.065,1.7830548156052828
3.0660000000000003,1.7946634906111285
3.067,1.7508084961446002
3.068,1.771446140599437
3.069,1.7559679072583094
3.0700000000000003,1.732750557246618
3.071,1.7469389378093183
3.072,1.7520983489230275
3.073,1.7508084961446002
3.074,1.7572577600367367
3.075,1.7508084961446002
3.076,1.7985330489464104
3.077,1.7869243739405647
3.078,1.7856345211621374
3.079,1.814011282287538
3.08,1.7946634906111285
3.081,1.8024026072816923
3.082,1.8062721656169742
3.083,1.8024026072816923
3.084,1.7972431961679831
3.085,1.7856345211621374
3.086,1.7740258461562917
3.087,1.7791852572700009
3.088,1.7443592322524637
3.089,1.762417171150446
3.09,1.758547612815164
3.091,1.7430693794740364
3.092,1.7482287905877456
3.093,1.7546780544798821
3.094,1.7546780544798821
3.095,1.78434466838371
3.096,1.762417171150446
3.097,1.8036924600601196
3.098,1.7946634906111285
3.099,1.792083785054274
3.1,1.8243301045149565
3.101,1.8127214295091107
3.102,1.8075620183954015
3.103,1.8036924600601196
3.104,1.7946634906111285
3.105,1.7972431961679831
3.106,1.7778954044915736
3.107,1.7649968767073005
3.108,1.7701562878210098
3.109,1.7379099683603272
3.11,1.7637070239288732
3.111,1.762417171150446
3.112,1.7469389378093183
3.113,1.7520983489230275
3.114,1.7649968767073005
3.115,1.7727359933778644
3.116,1.78434466838371
3.117,1.775315698934719
3.118,1.8153011350659654
3.119,1.804982312838547
3.12,1.7985330489464104
3.121,1.8075620183954015
3.122,1.8088518711738288
3.123,1.804982312838547
3.124,1.7998229017248377
3.125,1.7611273183720186
3.126,1.7985330489464104
3.1270000000000002,1.762417171150446
3.128,1.7533882017014548
3.129,1.7688664350425825
3.13,1.732750557246618
3.1310000000000002,1.7482287905877456
3.132,1.7572577600367367
3.133,1.7508084961446002
3.134,1.762417171150446
3.1350000000000002,1.7572577600367367
3.136,1.7766055517131463
3.137,1.8062721656169742
3.138,1.7791852572700009
3.1390000000000002,1.8114315767306834
3.14,1.804982312838547
3.141,1.801112754503265
3.142,1.8088518711738288
3.1430000000000002,1.8024026072816923
3.144,1.7946634906111285
3.145,1.7895040794974193
3.146,1.7675765822641551
3.1470000000000002,1.7830548156052828
3.148,1.7533882017014548
3.149,1.7533882017014548
3.15,1.7662867294857278
3.1510000000000002,1.7443592322524637
3.152,1.7533882017014548
3.153,1.7637070239288732
3.154,1.7598374655935913
3.1550000000000002,1.7946634906111285
3.156,1.762417171150446
3.157,1.7946634906111285
3.158,1.8127214295091107
3.1590000000000003,1.7895040794974193
3.16,1.8243301045149565
3.161,1.8114315767306834
3.162,1.7998229017248377
3.1630000000000003,1.8024026072816923
3.164,1.7933736378327012
3.165,1.7907939322758466
3.166,1.7727359933778644
3.1670000000000003,1.7508084961446002
3.168,1.7675765822641551
3.169,1.7430693794740364
3.17,1.7482287905877456
3.1710000000000003,1.7520983489230275
3.172,1.741779526695609
3.173,1.7546780544798821
3.174,1.771446140599437
3.1750000000000003,1.7675765822641551
3.176,1.7959533433895558
3.177,1.7766055517131463
3.178,1.8101417239522561
3.1790000000000003,1.8127214295091107
3.18,1.7907939322758466
3.181,1.8101417239522561
3.182,1.8075620183954015
3.1830000000000003,1.7933736378327012
3.184,1.7907939322758466
3.185,1.7598374655935913
3.186,1.7817649628268555
3.1870000000000003,1.771446140599437
3.188,1.7379099683603272
3.189,1.7649968767073005
3.19,1.7391998211387545
3.1910000000000003,1.741779526695609
3.192,1.7559679072583094
3.193,1.7533882017014548
3.194,1.7791852572700009
3.1950000000000003,1.7727359933778644
3.196,1.775315698934719
3.197,1.8088518711738288
3.198,1.78434466838371
3.1990000000000003,1.804982312838547
3.2,1.814011282287538
3.201,1.801112754503265
3.202,1.8036924600601196
3.203,1.7998229017248377
3.204,1.7856345211621374
3.205,1.7907939322758466
3.206,1.762417171150446
3.207,1.7688664350425825
3.208,1.7675765822641551
3.209,1.7353302628034726
3.21,1.7430693794740364
3.211,1.7546780544798821
3.212,1.7404896739171818
3.213,1.7520983489230275
3.214,1.7520983489230275
3.215,1.7804751100484282
3.216,1.792083785054274
3.217,1.7766055517131463
3.218,1.8036924600601196
3.219,1.8062721656169742
3.22,1.801112754503265
3.221,1.8062721656169742
3.222,1.8036924600601196
3.223,1.788214226718992
3.224,1.7895040794974193
3.225,1.758547612815164
3.226,1.7817649628268555
3.227,1.762417171150446
3.228,1.7366201155818999
3.229,1.7637070239288732
3.23,1.749518643366173
3.231,1.7443592322524637
3.232,1.7533882017014548
3.233,1.7546780544798821
3.234,1.7740258461562917
3.235,1.7869243739405647
3.236,1.7727359933778644
3.237,1.8036924600601196
3.238,1.7972431961679831
3.239,1.7959533433895558
3.24,1.8062721656169742
3.241,1.8075620183954015
3.242,1.804982312838547
3.243,1.801112754503265
3.244,1.7804751100484282
3.245,1.7856345211621374
3.246,1.7662867294857278
3.247,1.7559679072583094
3.248,1.7675765822641551
3.249,1.741779526695609
3.25,1.745649085030891
3.251,1.7533882017014548
3.2520000000000002,1.7443592322524637
3.253,1.7559679072583094
3.254,1.7675765822641551
3.255,1.7701562878210098
3.2560000000000002,1.7972431961679831
3.257,1.7740258461562917
3.258,1.801112754503265
3.259,1.8114315767306834
3.2600000000000002,1.7972431961679831
3.261,1.8036924600601196
3.262,1.801112754503265
3.263,1.7933736378327012
3.2640000000000002,1.7972431961679831
3.265,1.7662867294857278
3.266,1.762417171150446
3.267,1.7740258461562917
3.2680000000000002,1.7301708516897634
3.269,1.7572577600367367
3.27,1.7482287905877456
3.271,1.7404896739171818
3.2720000000000002,1.7546780544798821
3.273,1.7598374655935913
3.274,1.7637070239288732
3.275,1.7946634906111285
3.2760000000000002,1.7662867294857278
3.277,1.8024026072816923
3.278,1.804982312838547
3.279,1.788214226718992
3.2800000000000002,1.8036924600601196
3.281,1.8036924600601196
3.282,1.7959533433895558
3.283,1.7972431961679831
3.2840000000000003,1.7727359933778644
3.285,1.7817649628268555
3.286,1.7688664350425825
3.287,1.7469389378093183
3.2880000000000003,1.7662867294857278
3.289,1.732750557246618
3.29,1.7482287905877456
3.291,1.7482287905877456
3.2920000000000003,1.7469389378093183
3.293,1.7572577600367367
3.294,1.7675765822641551
3.295,1.7766055517131463
3.2960000000000003,1.8036924600601196
3.297,1.7869243739405647
3.298,1.7998229017248377
3.299,1.81788084062282
3.3000000000000003,1.8088518711738288
3.301,1.804982312838547
3.302,1.801112754503265
3.303,1.7946634906111285
3.3040000000000003,1.7946634906111285
3.305,1.7598374655935913
3.306,1.7598374655935913
3.307,1.7740258461562917
3.3080000000000003,1.7379099683603272
3.309,1.7598374655935913
3.31,1.7546780544798821
3.311,1.7430693794740364
3.3120000000000003,1.7533882017014548
3.313,1.7598374655935913
3.314,1.7791852572700009
3.315,1.7830548156052828
3.3160000000000003,1.7727359933778644
3.317,1.8024026072816923
3.318,1.8036924600601196
3.319,1.7946634906111285
3.3200000000000003,1.8062721656169742
3.321,1.8114315767306834
3.322,1.801112754503265
3.323,1.7972431961679831
3.3240000000000003,1.7649968767073005
3.325,1.7701562878210098
3.326,1.762417171150446
3.327,1.745649085030891
3.3280000000000003,1.7675765822641551
3.329,1.7314607044681907
3.33,1.745649085030891
3.331,1.7611273183720186
3.332,1.749518643366173
3.333,1.762417171150446
3.334,1.7688664350425825
3.335,1.745649085030891
3.336,1.7998229017248377
3.337,1.7791852572700009
3.338,1.801112754503265
3.339,1.8191706934012473
3.34,1.8062721656169742
3.341,1.801112754503265
3.342,1.8062721656169742
3.343,1.7895040794974193
3.344,1.7972431961679831
3.345,1.7701562878210098
3.346,1.771446140599437
3.347,1.7740258461562917
3.348,1.7353302628034726
3.349,1.7675765822641551
3.35,1.7482287905877456
3.351,1.749518643366173
3.352,1.7572577600367367
3.353,1.7662867294857278
3.354,1.788214226718992
3.355,1.792083785054274
3.356,1.7727359933778644
3.357,1.8062721656169742
3.358,1.7933736378327012
3.359,1.7998229017248377
3.36,1.8036924600601196
3.361,1.801112754503265
3.362,1.7998229017248377
3.363,1.7946634906111285
3.364,1.7701562878210098
3.365,1.78434466838371
3.366,1.7520983489230275
3.367,1.7546780544798821
3.368,1.7675765822641551
3.369,1.732750557246618
3.37,1.7482287905877456
3.371,1.7559679072583094
3.372,1.7482287905877456
3.373,1.7649968767073005
3.374,1.7675765822641551
3.375,1.7791852572700009
3.376,1.804982312838547
3.3770000000000002,1.7766055517131463
3.378,1.8165909878443927
3.379,1.8036924600601196
3.38,1.8075620183954015
3.3810000000000002,1.8036924600601196
3.382,1.7959533433895558
3.383,1.7895040794974193
3.384,1.7946634906111285
3.3850000000000002,1.7546780544798821
3.386,1.771446140599437
3.387,1.7727359933778644
3.388,1.7391998211387545
3.3890000000000002,1.7559679072583094
3.39,1.7546780544798821
3.391,1.7469389378093183
3.392,1.7559679072583094
3.3930000000000002,1.7572577600367367
3.394,1.7856345211621374
3.395,1.7907939322758466
3.396,1.7791852572700009
3.3970000000000002,1.8088518711738288
3.398,1.8036924600601196
3.399,1.792083785054274
3.4,1.8101417239522561
3.4010000000000002,1.8024026072816923
3.402,1.7972431961679831
3.403,1.792083785054274
3.404,1.7649968767073005
3.4050000000000002,1.7830548156052828
3.406,1.7533882017014548
3.407,1.749518643366173
3.408,1.7662867294857278
3.4090000000000003,1.7430693794740364
3.41,1.7469389378093183
3.411,1.7546780544798821
3.412,1.749518643366173
3.4130000000000003,1.7817649628268555
3.414,1.7675765822641551
3.415,1.7804751100484282
3.416,1.8062721656169742
3.4170000000000003,1.7740258461562917
3.418,1.8165909878443927
3.419,1.8088518711738288
3.42,1.7972431961679831
3.4210000000000003,1.8088518711738288
3.422,1.7998229017248377
3.423,1.788214226718992
3.424,1.7946634906111285
3.4250000000000003,1.7572577600367367
3.426,1.7740258461562917
3.427,1.7546780544798821
3.428,1.7430693794740364
3.4290000000000003,1.7508084961446002
3.43,1.7559679072583094
3.431,1.7482287905877456
3.432,1.758547612815164
3.4330000000000003,1.7482287905877456
3.434,1.78434466838371
3.435,1.7856345211621374
3.436,1.78434466838371
3.4370000000000003,1.8127214295091107
3.438,1.7985330489464104
3.439,1.7998229017248377
3.44,1.804982312838547
3.4410000000000003,1.7985330489464104
3.442,1.7998229017248377
3.443,1.792083785054274
3.444,1.7662867294857278
3.4450000000000003,1.7869243739405647
3.446,1.7469389378093183
3.447,1.7443592322524637
3.448,1.7649968767073005
3.4490000000000003,1.7391998211387545
3.45,1.7469389378093183
3.451,1.7598374655935913
3.452,1.7508084961446002
3.4530000000000003,1.7778954044915736
3.454,1.775315698934719
3.455,1.7856345211621374
3.456,1.804982312838547
3.457,1.7895040794974193
3.458,1.814011282287538
3.459,1.8114315767306834
3.46,1.8062721656169742
3.461,1.804982312838547
3.462,1.801112754503265
3.463,1.7933736378327012
3.464,1.7895040794974193
3.465,1.749518643366173
3.466,1.775315698934719
3.467,1.7508084961446002
3.468,1.741779526695609
3.469,1.7482287905877456
3.47,1.749518643366173
3.471,1.7533882017014548
3.472,1.762417171150446
3.473,1.7533882017014548
3.474,1.7907939322758466
3.475,1.7959533433895558
3.476,1.78434466838371
3.477,1.8191706934012473
3.478,1.7895040794974193
3.479,1.8024026072816923
3.48,1.8101417239522561
3.481,1.7972431961679831
3.482,1.801112754503265
3.483,1.788214226718992
3.484,1.7675765822641551
3.485,1.7817649628268555
3.486,1.7469389378093183
3.487,1.758547612815164
3.488,1.7598374655935913
3.489,1.7469389378093183
3.49,1.749518643366173
3.491,1.7559679072583094
3.492,1.7520983489230275
3.493,1.788214226718992
3.494,1.762417171150446
3.495,1.7985330489464104
3.496,1.8062721656169742
3.497,1.7869243739405647
3.498,1.8153011350659654
3.499,1.8101417239522561
3.5,1.804982312838547
3.501,1.804982312838547
3.5020000000000002,1.7985330489464104
3.503,1.788214226718992
3.504,1.7804751100484282
3.505,1.7482287905877456
3.5060000000000002,1.762417171150446
3.507,1.7533882017014548
3.508,1.741779526695609
3.509,1.7546780544798821
3.5100000000000002,1.7508084961446002
3.511,1.7546780544798821
3.512,1.7637070239288732
3.513,1.7546780544798821
3.5140000000000002,1.8024026072816923
3.515,1.7804751100484282
3.516,1.792083785054274
3.517,1.8165909878443927
3.5180000000000002,1.7869243739405647
3.519,1.804982312838547
3.52,1.8075620183954015
3.521,1.7985330489464104
3.5220000000000002,1.7985330489464104
3.523,1.7830548156052828
3.524,1.7856345211621374
3.525,1.7817649628268555
3.5260000000000002,1.741779526695609
3.527,1.7572577600367367
3.528,1.7611273183720186
3.529,1.745649085030891
3.5300000000000002,1.7520983489230275
3.531,1.758547612815164
3.532,1.7546780544798821
3.533,1.7869243739405647
3.5340000000000003,1.7701562878210098
3.535,1.7972431961679831
3.536,1.8127214295091107
3.537,1.7830548156052828
3.5380000000000003,1.8191706934012473
3.539,1.8153011350659654
3.54,1.801112754503265
3.541,1.801112754503265
3.5420000000000003,1.7946634906111285
3.543,1.7895040794974193
3.544,1.7804751100484282
3.545,1.7520983489230275
3.5460000000000003,1.7701562878210098
3.547,1.7508084961446002
3.548,1.7469389378093183
3.549,1.7520983489230275
3.5500000000000003,1.749518643366173
3.551,1.7598374655935913
3.552,1.762417171150446
3.553,1.7598374655935913
3.5540000000000003,1.801112754503265
3.555,1.7869243739405647
3.556,1.788214226718992
3.557,1.8165909878443927
3.5580000000000003,1.7895040794974193
3.559,1.804982312838547
3.56,1.8062721656169742
3.561,1.7998229017248377
3.5620000000000003,1.7972431961679831
3.563,1.7817649628268555
3.564,1.762417171150446
3.565,1.7778954044915736
3.5660000000000003,1.7546780544798821
3.567,1.7572577600367367
3.568,1.7649968767073005
3.569,1.7443592322524637
3.5700000000000003,1.7533882017014548
3.571,1.7611273183720186
3.572,1.7598374655935913
3.573,1.7895040794974193
3.5740000000000003,1.7740258461562917
3.575,1.7972431961679831
3.576,1.8127214295091107
3.577,1.78434466838371
3.5780000000000003,1.8191706934012473
3.579,1.8114315767306834
3.58,1.804982312838547
3.581,1.8024026072816923
3.5820000000000003,1.7959533433895558
3.583,1.7817649628268555
3.584,1.788214226718992
3.585,1.7404896739171818
3.586,1.7637070239288732
3.587,1.7520983489230275
3.588,1.7430693794740364
3.589,1.749518643366173
3.59,1.7559679072583094
3.591,1.7572577600367367
3.592,1.7662867294857278
3.593,1.7559679072583094
3.594,1.7933736378327012
3.595,1.792083785054274
3.596,1.7907939322758466
3.597,1.8191706934012473
3.598,1.7998229017248377
3.599,1.8075620183954015
3.6,1.8062721656169742
3.601,1.7946634906111285
3.602,1.7907939322758466
3.603,1.7804751100484282
3.604,1.758547612815164
3.605,1.7740258461562917
3.606,1.7508084961446002
3.607,1.7520983489230275
3.608,1.7546780544798821
3.609,1.749518643366173
3.61,1.7508084961446002
3.611,1.7598374655935913
3.612,1.7572577600367367
3.613,1.7895040794974193
3.614,1.762417171150446
3.615,1.7998229017248377
3.616,1.8088518711738288
3.617,1.7856345211621374
3.618,1.8101417239522561
3.619,1.8075620183954015
3.62,1.7972431961679831
3.621,1.7998229017248377
3.622,1.788214226718992
3.623,1.78434466838371
3.624,1.7830548156052828
3.625,1.7482287905877456
3.626,1.762417171150446
3.6270000000000002,1.7533882017014548
3.628,1.741779526695609
3.629,1.7482287905877456
3.63,1.7559679072583094
3.6310000000000002,1.7559679072583094
3.632,1.7766055517131463
3.633,1.7611273183720186
3.634,1.7959533433895558
3.6350000000000002,1.7946634906111285
3.636,1.7907939322758466
3.637,1.8165909878443927
3.638,1.8075620183954015
3.6390000000000002,1.8062721656169742
3.64,1.8036924600601196
3.641,1.7985330489464104
3.642,1.7895040794974193
3.6430000000000002,1.7766055517131463
3.644,1.7533882017014548
3.645,1.7701562878210098
3.646,1.762417171150446
3.6470000000000002,1.7430693794740364
3.648,1.7572577600367367
3.649,1.7366201155818999
3.65,1.7469389378093183
3.6510000000000002,1.758547612815164
3.652,1.7559679072583094
3.653,1.7856345211621374
3.654,1.762417171150446
3.6550000000000002,1.7933736378327012
3.656,1.801112754503265
3.657,1.7856345211621374
3.658,1.8036924600601196
3.6590000000000003,1.7946634906111285
3.66,1.7907939322758466
3.661,1.788214226718992
3.662,1.7572577600367367
3.6630000000000003,1.7766055517131463
3.664,1.7637070239288732
3.665,1.7379099683603272
3.666,1.7572577600367367
3.6670000000000003,1.7237215877976269
3.668,1.7275911461329088
3.669,1.7391998211387545
3.67,1.732750557246618
3.6710000000000003,1.741779526695609
3.672,1.7546780544798821
3.673,1.7533882017014548
3.674,1.7856345211621374
3.6750000000000003,1.7611273183720186
3.676,1.788214226718992
3.677,1.7985330489464104
3.678,1.7869243739405647
3.6790000000000003,1.788214226718992
3.68,1.7856345211621374
3.681,1.7727359933778644
3.682,1.7766055517131463
3.6830000000000003,1.7482287905877456
3.684,1.7508084961446002
3.685,1.7482287905877456
3.686,1.715982471127063
3.6870000000000003,1.7340404100250453
3.688,1.7250114405760542
3.689,1.7237215877976269
3.69,1.7250114405760542
3.6910000000000003,1.7366201155818999
3.692,1.7430693794740364
3.693,1.7727359933778644
3.694,1.7404896739171818
3.6950000000000003,1.7830548156052828
3.696,1.7740258461562917
3.697,1.7675765822641551
3.698,1.775315698934719
3.6990000000000003,1.7766055517131463
3.7,1.771446140599437
3.701,1.7688664350425825
3.702,1.7379099683603272
3.7030000000000003,1.7572577600367367
3.704,1.7340404100250453
3.705,1.7185621766839176
3.706,1.7301708516897634
3.7070000000000003,1.7095332072349265
3.708,1.7108230600133538
3.709,1.719852029462345
3.71,1.7121129127917811
3.7110000000000003,1.7263012933544815
3.712,1.7250114405760542
3.713,1.7469389378093183
3.714,1.7649968767073005
3.715,1.7366201155818999
3.716,1.7688664350425825
3.717,1.7740258461562917
3.718,1.762417171150446
3.719,1.7688664350425825
3.72,1.7701562878210098
3.721,1.7533882017014548
3.722,1.7533882017014548
3.723,1.7108230600133538
3.724,1.7340404100250453
3.725,1.7211418822407722
3.726,1.6979245322290808
3.727,1.7237215877976269
3.728,1.706953501678072
3.729,1.7017940905643627
3.73,1.7146926183486357
3.731,1.7121129127917811
3.732,1.741779526695609
3.733,1.7263012933544815
3.734,1.7379099683603272
3.735,1.7688664350425825
3.736,1.7391998211387545
3.737,1.7727359933778644
3.738,1.7701562878210098
3.739,1.7611273183720186
3.74,1.7572577600367367
3.741,1.7482287905877456
3.742,1.728880998911336
3.743,1.7211418822407722
3.744,1.6940549738937989
3.745,1.7185621766839176
3.746,1.70308394334279
3.747,1.690185415558517
3.748,1.699214385007508
3.749,1.699214385007508
3.75,1.7082433544564992
3.751,1.7134027655702084
3.7520000000000002,1.7082433544564992
3.753,1.7366201155818999
3.754,1.7366201155818999
3.755,1.7443592322524637
3.7560000000000002,1.7701562878210098
3.757,1.7404896739171818
3.758,1.7572577600367367
3.759,1.7546780544798821
3.7600000000000002,1.7508084961446002
3.761,1.745649085030891
3.762,1.7185621766839176
3.763,1.7275911461329088
3.7640000000000002,1.728880998911336
3.765,1.6888955627800897
3.766,1.7134027655702084
3.767,1.7056636488996446
3.7680000000000002,1.6953448266722262
3.769,1.7017940905643627
3.77,1.70308394334279
3.771,1.7121129127917811
3.7720000000000002,1.7379099683603272
3.773,1.7172723239054903
3.774,1.7546780544798821
3.775,1.7469389378093183
3.7760000000000002,1.745649085030891
3.777,1.7688664350425825
3.778,1.7637070239288732
3.779,1.7533882017014548
3.7800000000000002,1.7520983489230275
3.781,1.7391998211387545
3.782,1.7443592322524637
3.783,1.7134027655702084
3.7840000000000003,1.7185621766839176
3.785,1.719852029462345
3.786,1.6837361516663805
3.787,1.7146926183486357
3.7880000000000003,1.706953501678072
3.789,1.6940549738937989
3.79,1.7017940905643627
3.791,1.7185621766839176
3.7920000000000003,1.7224317350191996
3.793,1.7508084961446002
3.794,1.7211418822407722
3.795,1.7598374655935913
3.7960000000000003,1.7546780544798821
3.797,1.7430693794740364
3.798,1.758547612815164
3.799,1.7559679072583094
3.8000000000000003,1.749518643366173
3.801,1.7430693794740364
3.802,1.7134027655702084
3.803,1.732750557246618
3.8040000000000003,1.7095332072349265
3.805,1.70308394334279
3.806,1.7134027655702084
3.807,1.70308394334279
3.8080000000000003,1.6966346794506535
3.809,1.706953501678072
3.81,1.7017940905643627
3.811,1.728880998911336
3.8120000000000003,1.7211418822407722
3.813,1.7301708516897634
3.814,1.7559679072583094
3.815,1.7340404100250453
3.8160000000000003,1.762417171150446
3.817,1.7675765822641551
3.818,1.7559679072583094
3.819,1.7572577600367367
3.8200000000000003,1.7533882017014548
3.821,1.7391998211387545
3.822,1.7443592322524637
3.823,1.70308394334279
3.8240000000000003,1.7185621766839176
3.825,1.7211418822407722
3.826,1.6850260044448078
3.827,1.6966346794506535
3.8280000000000003,1.7056636488996446
3.829,1.6966346794506535
3.83,1.706953501678072
3.831,1.7043737961212173
3.8320000000000003,1.732750557246618
3.833,1.745649085030891
3.834,1.7275911461329088
3.835,1.7637070239288732
3.8360000000000003,1.7508084961446002
3.837,1.7559679072583094
3.838,1.758547612815164
3.839,1.7559679072583094
3.84,1.7533882017014548
3.841,1.745649085030891
3.842,1.7185621766839176
3.843,1.7379099683603272
3.844,1.706953501678072
3.845,1.6927651211153716
3.846,1.7146926183486357
3.847,1.6966346794506535
3.848,1.699214385007508
3.849,1.7108230600133538
3.85,1.7043737961212173
3.851,1.7366201155818999
3.852,1.7237215877976269
3.853,1.732750557246618
3.854,1.7598374655935913
3.855,1.7404896739171818
3.856,1.762417171150446
3.857,1.7662867294857278
3.858,1.7546780544798821
3.859,1.7533882017014548
3.86,1.7546780544798821
3.861,1.7430693794740364
3.862,1.7430693794740364
3.863,1.706953501678072
3.864,1.7263012933544815
3.865,1.706953501678072
3.866,1.70308394334279
3.867,1.7043737961212173
3.868,1.70308394334279
3.869,1.7082433544564992
3.87,1.7134027655702084
3.871,1.7082433544564992
3.872,1.7508084961446002
3.873,1.7237215877976269
3.874,1.7469389378093183
3.875,1.7688664350425825
3.876,1.745649085030891
3.8770000000000002,1.762417171150446
3.878,1.7598374655935913
3.879,1.7533882017014548
3.88,1.7508084961446002
3.8810000000000002,1.7314607044681907
3.882,1.728880998911336
3.883,1.732750557246618
3.884,1.6953448266722262
3.8850000000000002,1.7211418822407722
3.886,1.7043737961212173
3.887,1.6940549738937989
3.888,1.7056636488996446
3.8890000000000002,1.706953501678072
3.89,1.715982471127063
3.891,1.728880998911336
3.892,1.7146926183486357
3.8930000000000002,1.758547612815164
3.894,1.7391998211387545
3.895,1.7546780544798821
3.896,1.7727359933778644
3.8970000000000002,1.762417171150446
3.898,1.7598374655935913
3.899,1.758547612815164
3.9,1.749518643366173
3.9010000000000002,1.7572577600367367
3.902,1.7121129127917811
3.903,1.7275911461329088
3.904,1.7250114405760542
3.9050000000000002,1.690185415558517
3.906,1.7185621766839176
3.907,1.7108230600133538
3.908,1.7017940905643627
3.9090000000000003,1.7082433544564992
3.91,1.7108230600133538
3.911,1.7366201155818999
3.912,1.7366201155818999
3.9130000000000003,1.732750557246618
3.914,1.7637070239288732
3.915,1.745649085030891
3.916,1.7598374655935913
3.9170000000000003,1.7598374655935913
3.918,1.758547612815164
3.919,1.7559679072583094
3.92,1.7533882017014548
3.9210000000000003,1.732750557246618
3.922,1.749518643366173
3.923,1.7056636488996446
3.924,1.719852029462345
3.9250000000000003,1.7121129127917811
3.926,1.6914752683369443
3.927,1.7056636488996446
3.928,1.7056636488996446
3.9290000000000003,1.7056636488996446
3.93,1.715982471127063
3.931,1.706953501678072
3.932,1.719852029462345
3.9330000000000003,1.7443592322524637
3.934,1.741779526695609
3.935,1.7701562878210098
3.936,1.7469389378093183
3.9370000000000003,1.7598374655935913
3.938,1.7611273183720186
3.939,1.7533882017014548
3.94,1.7508084961446002
3.9410000000000003,1.7353302628034726
3.942,1.7185621766839176
3.943,1.7353302628034726
3.944,1.699214385007508
3.9450000000000003,1.715982471127063
3.946,1.70308394334279
3.947,1.6940549738937989
3.948,1.7043737961212173
3.9490000000000003,1.7108230600133538
3.95,1.7134027655702084
3.951,1.7391998211387545
3.952,1.7043737961212173
3.9530000000000003,1.758547612815164
3.954,1.7443592322524637
3.955,1.7508084961446002
3.956,1.7740258461562917
3.9570000000000003,1.7649968767073005
3.958,1.758547612815164
3.959,1.7546780544798821
3.96,1.7430693794740364
3.9610000000000003,1.7508084961446002
3.962,1.715982471127063
3.963,1.7211418822407722
3.964,1.7237215877976269
3.9650000000000003,1.6888955627800897
3.966,1.715982471127063
3.967,1.7121129127917811
3.968,1.7017940905643627
3.969,1.715982471127063
3.97,1.719852029462345
3.971,1.7379099683603272
3.972,1.7430693794740364
3.973,1.7263012933544815
3.974,1.7688664350425825
3.975,1.7546780544798821
3.976,1.7598374655935913
3.977,1.7611273183720186
3.978,1.758547612815164
3.979,1.758547612815164
3.98,1.7520983489230275
3.981,1.7237215877976269
3.982,1.741779526695609
3.983,1.7134027655702084
3.984,1.7095332072349265
3.985,1.7224317350191996
3.986,1.6876057100016624
3.987,1.699214385007508
3.988,1.715982471127063
3.989,1.7043737961212173
3.99,1.7134027655702084
3.991,1.7172723239054903
3.992,1.7469389378093183
3.993,1.7520983489230275
3.994,1.7340404100250453
3.995,1.7649968767073005
3.996,1.7546780544798821
3.997,1.758547612815164
3.998,1.758547612815164
3.999,1.7546780544798821
4.0,1.749518643366173
4.001,1.7391998211387545
4.002,1.7108230600133538
4.003,1.7314607044681907
4.0040000000000004,1.7043737961212173
4.005,1.7095332072349265
4.006,1.715982471127063
4.007,1.6966346794506535
4.008,1.7056636488996446
4.009,1.7172723239054903
4.01,1.7172723239054903
4.011,1.749518643366173
4.0120000000000005,1.7250114405760542
4.013,1.7598374655935913
4.014,1.762417171150446
4.015,1.7430693794740364
4.016,1.7572577600367367
4.017,1.7649968767073005
4.018,1.7559679072583094
4.019,1.7520983489230275
4.0200000000000005,1.7430693794740364
4.021,1.7469389378093183
4.022,1.732750557246618
4.023,1.7056636488996446
4.024,1.7275911461329088
4.025,1.6953448266722262
4.026,1.7005042377859354
4.027,1.719852029462345
4.0280000000000005,1.6966346794506535
4.029,1.7121129127917811
4.03,1.7095332072349265
4.031,1.7275911461329088
4.032,1.7508084961446002
4.033,1.7340404100250453
4.034,1.7611273183720186
4.035,1.7649968767073005
4.0360000000000005,1.7546780544798821
4.037,1.762417171150446
4.038,1.7598374655935913
4.039,1.7546780544798821
4.04,1.7443592322524637
4.041,1.7146926183486357
4.042,1.7391998211387545
4.043,1.706953501678072
4.0440000000000005,1.6966346794506535
4.045,1.7224317350191996
4.046,1.699214385007508
4.047,1.7043737961212173
4.048,1.706953501678072
4.049,1.7108230600133538
4.05,1.7430693794740364
4.051,1.7211418822407722
4.0520000000000005,1.7379099683603272
4.053,1.7649968767073005
4.054,1.7340404100250453
4.055,1.7727359933778644
4.056,1.7649968767073005
4.057,1.758547612815164
4.058,1.758547612815164
4.059,1.7508084961446002
4.0600000000000005,1.745649085030891
4.061,1.741779526695609
4.062,1.70308394334279
4.063,1.7263012933544815
4.064,1.70308394334279
4.065,1.699214385007508
4.066,1.7043737961212173
4.067,1.7017940905643627
4.0680000000000005,1.7082433544564992
4.069,1.7185621766839176
4.07,1.7095332072349265
4.071,1.7482287905877456
4.072,1.728880998911336
4.073,1.7482287905877456
4.074,1.771446140599437
4.075,1.7430693794740364
4.0760000000000005,1.7637070239288732
4.077,1.7662867294857278
4.078,1.7533882017014548
4.079,1.749518643366173
4.08,1.7263012933544815
4.081,1.7366201155818999
4.082,1.7301708516897634
4.083,1.7005042377859354
4.0840000000000005,1.7211418822407722
4.085,1.6966346794506535
4.086,1.70308394334279
4.087,1.7056636488996446
4.088,1.7082433544564992
4.089,1.7134027655702084
4.09,1.7263012933544815
4.091,1.7250114405760542
4.0920000000000005,1.758547612815164
4.093,1.7379099683603272
4.094,1.7572577600367367
4.095,1.7740258461562917
4.096,1.7520983489230275
4.097,1.7637070239288732
4.098,1.758547612815164
4.099,1.7482287905877456
4.1,1.7559679072583094
4.101,1.7134027655702084
4.102,1.7301708516897634
4.103,1.719852029462345
4.104,1.6979245322290808
4.105,1.7146926183486357
4.106,1.7108230600133538
4.107,1.70308394334279
4.108,1.7095332072349265
4.109,1.7095332072349265
4.11,1.7379099683603272
4.111,1.7430693794740364
4.112,1.7379099683603272
4.113,1.7675765822641551
4.114,1.741779526695609
4.115,1.7688664350425825
4.116,1.7675765822641551
4.117,1.7533882017014548
4.118,1.758547612815164
4.119,1.7533882017014548
4.12,1.7366201155818999
4.121,1.7520983489230275
4.122,1.7005042377859354
4.123,1.7250114405760542
4.124,1.7146926183486357
4.125,1.6953448266722262
4.126,1.7056636488996446
4.127,1.7056636488996446
4.128,1.7082433544564992
4.1290000000000004,1.7211418822407722
4.13,1.7121129127917811
4.131,1.758547612815164
4.132,1.7391998211387545
4.133,1.7443592322524637
4.134,1.771446140599437
4.135,1.7469389378093183
4.136,1.7637070239288732
4.1370000000000005,1.758547612815164
4.138,1.7533882017014548
4.139,1.749518643366173
4.14,1.728880998911336
4.141,1.7134027655702084
4.142,1.7379099683603272
4.143,1.6953448266722262
4.144,1.719852029462345
4.1450000000000005,1.699214385007508
4.146,1.6940549738937989
4.147,1.7082433544564992
4.148,1.7095332072349265
4.149,1.715982471127063
4.15,1.7391998211387545
4.151,1.7275911461329088
4.152,1.7572577600367367
4.1530000000000005,1.7443592322524637
4.154,1.7508084961446002
4.155,1.775315698934719
4.156,1.7662867294857278
4.157,1.758547612815164
4.158,1.758547612815164
4.159,1.7430693794740364
4.16,1.7533882017014548
4.1610000000000005,1.7185621766839176
4.162,1.7224317350191996
4.163,1.7340404100250453
4.164,1.6914752683369443
4.165,1.7224317350191996
4.166,1.7043737961212173
4.167,1.70308394334279
4.168,1.7043737961212173
4.1690000000000005,1.7211418822407722
4.17,1.741779526695609
4.171,1.7482287905877456
4.172,1.7263012933544815
4.173,1.7675765822641551
4.174,1.7559679072583094
4.175,1.7533882017014548
4.176,1.7637070239288732
4.1770000000000005,1.7598374655935913
4.178,1.7572577600367367
4.179,1.7533882017014548
4.18,1.7263012933544815
4.181,1.7482287905877456
4.182,1.7082433544564992
4.183,1.7108230600133538
4.184,1.7185621766839176
4.1850000000000005,1.6888955627800897
4.186,1.70308394334279
4.187,1.7121129127917811
4.188,1.7043737961212173
4.189,1.7146926183486357
4.19,1.7134027655702084
4.191,1.7572577600367367
4.192,1.7469389378093183
4.1930000000000005,1.7404896739171818
4.194,1.7740258461562917
4.195,1.7520983489230275
4.196,1.758547612815164
4.197,1.7559679072583094
4.198,1.7559679072583094
4.199,1.745649085030891
4.2,1.7391998211387545
4.2010000000000005,1.7172723239054903
4.202,1.7314607044681907
4.203,1.7056636488996446
4.204,1.7082433544564992
4.205,1.7224317350191996
4.206,1.690185415558517
4.207,1.7043737961212173
4.208,1.7185621766839176
4.2090000000000005,1.7146926183486357
4.21,1.7430693794740364
4.211,1.7237215877976269
4.212,1.762417171150446
4.213,1.762417171150446
4.214,1.7443592322524637
4.215,1.7559679072583094
4.216,1.7637070239288732
4.2170000000000005,1.7533882017014548
4.218,1.7559679072583094
4.219,1.741779526695609
4.22,1.7469389378093183
4.221,1.728880998911336
4.222,1.706953501678072
4.223,1.7224317350191996
4.224,1.690185415558517
4.225,1.6979245322290808
4.226,1.715982471127063
4.227,1.699214385007508
4.228,1.7108230600133538
4.229,1.7146926183486357
4.23,1.7263012933544815
4.231,1.7533882017014548
4.232,1.7340404100250453
4.233,1.7637070239288732
4.234,1.762417171150446
4.235,1.7572577600367367
4.236,1.758547612815164
4.237,1.758547612815164
4.238,1.7482287905877456
4.239,1.7430693794740364
4.24,1.715982471127063
4.241,1.7366201155818999
4.242,1.7121129127917811
4.243,1.6953448266722262
4.244,1.719852029462345
4.245,1.7043737961212173
4.246,1.7056636488996446
4.247,1.7108230600133538
4.248,1.7082433544564992
4.249,1.7379099683603272
4.25,1.7263012933544815
4.251,1.7353302628034726
4.252,1.7662867294857278
4.253,1.7314607044681907
4.2540000000000004,1.7688664350425825
4.255,1.7637070239288732
4.256,1.7572577600367367
4.257,1.7598374655935913
4.258,1.7533882017014548
4.259,1.7443592322524637
4.26,1.745649085030891
4.261,1.7043737961212173
4.2620000000000005,1.7263012933544815
4.263,1.7043737961212173
4.264,1.7043737961212173
4.265,1.7017940905643627
4.266,1.699214385007508
4.267,1.7082433544564992
4.268,1.7146926183486357
4.269,1.706953501678072
4.2700000000000005,1.7508084961446002
4.271,1.728880998911336
4.272,1.7508084961446002
4.273,1.7701562878210098
4.274,1.7366201155818999
4.275,1.758547612815164
4.276,1.7637070239288732
4.277,1.7546780544798821
4.2780000000000005,1.7533882017014548
4.279,1.7250114405760542
4.28,1.732750557246618
4.281,1.7353302628034726
4.282,1.6979245322290808
4.283,1.7211418822407722
4.284,1.7005042377859354
4.285,1.699214385007508
4.2860000000000005,1.7043737961212173
4.287,1.7056636488996446
4.288,1.7121129127917811
4.289,1.7263012933544815
4.29,1.7211418822407722
4.291,1.7598374655935913
4.292,1.7301708516897634
4.293,1.7598374655935913
4.2940000000000005,1.7727359933778644
4.295,1.758547612815164
4.296,1.7611273183720186
4.297,1.758547612815164
4.298,1.7482287905877456
4.299,1.7572577600367367
4.3,1.7146926183486357
4.301,1.732750557246618
4.3020000000000005,1.7237215877976269
4.303,1.6953448266722262
4.304,1.7185621766839176
4.305,1.706953501678072
4.306,1.7017940905643627
4.307,1.715982471127063
4.308,1.7082433544564992
4.309,1.7379099683603272
4.3100000000000005,1.7340404100250453
4.311,1.7353302628034726
4.312,1.7649968767073005
4.313,1.7404896739171818
4.314,1.7649968767073005
4.315,1.762417171150446
4.316,1.7572577600367367
4.317,1.762417171150446
4.3180000000000005,1.7546780544798821
4.319,1.7340404100250453
4.32,1.7598374655935913
4.321,1.70308394334279
4.322,1.7263012933544815
4.323,1.7146926183486357
4.324,1.6888955627800897
4.325,1.7017940905643627
4.3260000000000005,1.7056636488996446
4.327,1.7043737961212173
4.328,1.719852029462345
4.329,1.7056636488996446
4.33,1.741779526695609
4.331,1.7366201155818999
4.332,1.7443592322524637
4.333,1.7675765822641551
4.3340000000000005,1.749518643366173
4.335,1.7649968767073005
4.336,1.7572577600367367
4.337,1.7546780544798821
4.338,1.7508084961446002
4.339,1.7224317350191996
4.34,1.719852029462345
4.341,1.7404896739171818
4.3420000000000005,1.6927651211153716
4.343,1.719852029462345
4.344,1.7095332072349265
4.345,1.6966346794506535
4.346,1.7108230600133538
4.347,1.7134027655702084
4.348,1.7146926183486357
4.349,1.7353302628034726
4.3500000000000005,1.7301708516897634
4.351,1.7559679072583094
4.352,1.745649085030891
4.353,1.7559679072583094
4.354,1.7766055517131463
4.355,1.7598374655935913
4.356,1.762417171150446
4.357,1.758547612815164
4.358,1.745649085030891
4.359,1.7482287905877456
4.36,1.7250114405760542
4.361,1.7263012933544815
4.362,1.7301708516897634
4.363,1.6927651211153716
4.364,1.7146926183486357
4.365,1.7095332072349265
4.366,1.7043737961212173
