Time (s),EOG (V)
0.0,1.745649085030891
0.001,1.7611273183720186
0.002,1.7869243739405647
0.003,1.7701562878210098
0.004,1.7869243739405647
0.005,1.78434466838371
0.006,1.7791852572700009
0.007,1.7701562878210098
0.008,1.7649968767073005
0.009000000000000001,1.7366201155818999
0.01,1.749518643366173
0.011,1.728880998911336
0.012,1.7095332072349265
0.013000000000000001,1.7237215877976269
0.014,1.7108230600133538
0.015,1.7095332072349265
0.016,1.715982471127063
0.017,1.728880998911336
0.018000000000000002,1.7404896739171818
0.019,1.7546780544798821
0.02,1.7379099683603272
0.021,1.7688664350425825
0.022,1.7804751100484282
0.023,1.7804751100484282
0.024,1.7830548156052828
0.025,1.7856345211621374
0.026000000000000002,1.775315698934719
0.027,1.7701562878210098
0.028,1.7559679072583094
0.029,1.7469389378093183
0.03,1.7508084961446002
0.031,1.719852029462345
0.032,1.7146926183486357
0.033,1.7237215877976269
0.034,1.7056636488996446
0.035,1.7185621766839176
0.036000000000000004,1.7224317350191996
0.037,1.715982471127063
0.038,1.749518643366173
0.039,1.7572577600367367
0.04,1.7469389378093183
0.041,1.7778954044915736
0.042,1.7856345211621374
0.043000000000000003,1.7791852572700009
0.044,1.7869243739405647
0.045,1.788214226718992
0.046,1.7766055517131463
0.047,1.7701562878210098
0.048,1.7469389378093183
0.049,1.7482287905877456
0.05,1.749518643366173
0.051000000000000004,1.7172723239054903
0.052000000000000005,1.7237215877976269
0.053,1.7185621766839176
0.054,1.7134027655702084
0.055,1.7134027655702084
0.056,1.7237215877976269
0.057,1.7237215877976269
0.058,1.7546780544798821
0.059000000000000004,1.7520983489230275
0.06,1.7572577600367367
0.061,1.7907939322758466
0.062,1.7791852572700009
0.063,1.7869243739405647
0.064,1.7907939322758466
0.065,1.7895040794974193
0.066,1.7804751100484282
0.067,1.7791852572700009
0.068,1.7469389378093183
0.069,1.7559679072583094
0.07,1.749518643366173
0.07100000000000001,1.715982471127063
0.07200000000000001,1.7275911461329088
0.073,1.7211418822407722
0.074,1.7095332072349265
0.075,1.719852029462345
0.076,1.732750557246618
0.077,1.732750557246618
0.078,1.762417171150446
0.079,1.7443592322524637
0.08,1.7701562878210098
0.081,1.7895040794974193
0.082,1.7740258461562917
0.083,1.7959533433895558
0.084,1.7985330489464104
0.085,1.7856345211621374
0.08600000000000001,1.7791852572700009
0.08700000000000001,1.7727359933778644
0.088,1.7533882017014548
0.089,1.762417171150446
0.09,1.7379099683603272
0.091,1.7185621766839176
0.092,1.7340404100250453
0.093,1.7121129127917811
0.094,1.7211418822407722
0.095,1.7275911461329088
0.096,1.7250114405760542
0.097,1.745649085030891
0.098,1.7559679072583094
0.099,1.745649085030891
0.1,1.7766055517131463
0.101,1.7895040794974193
0.10200000000000001,1.7778954044915736
0.10300000000000001,1.7946634906111285
0.10400000000000001,1.7959533433895558
0.105,1.78434466838371
0.106,1.7804751100484282
0.107,1.7649968767073005
0.108,1.7701562878210098
0.109,1.7662867294857278
0.11,1.7275911461329088
0.111,1.7301708516897634
0.112,1.7275911461329088
0.113,1.7134027655702084
0.114,1.715982471127063
0.115,1.7301708516897634
0.116,1.728880998911336
0.117,1.7533882017014548
0.11800000000000001,1.7379099683603272
0.11900000000000001,1.7572577600367367
0.12,1.78434466838371
0.121,1.7740258461562917
0.122,1.792083785054274
0.123,1.7946634906111285
0.124,1.7946634906111285
0.125,1.7869243739405647
0.126,1.78434466838371
0.127,1.7559679072583094
0.128,1.7637070239288732
0.129,1.7533882017014548
0.13,1.7263012933544815
0.131,1.7379099683603272
0.132,1.7224317350191996
0.133,1.706953501678072
0.134,1.7224317350191996
0.135,1.7301708516897634
0.136,1.7340404100250453
0.137,1.7598374655935913
0.138,1.7404896739171818
0.139,1.7688664350425825
0.14,1.7856345211621374
0.14100000000000001,1.7727359933778644
0.14200000000000002,1.7985330489464104
0.14300000000000002,1.7959533433895558
0.14400000000000002,1.7895040794974193
0.145,1.7895040794974193
0.146,1.7830548156052828
0.147,1.7598374655935913
0.148,1.7688664350425825
0.149,1.7430693794740364
0.15,1.7340404100250453
0.151,1.7391998211387545
0.152,1.7146926183486357
0.153,1.7185621766839176
0.154,1.7250114405760542
0.155,1.7237215877976269
0.156,1.7340404100250453
0.157,1.7559679072583094
0.158,1.7430693794740364
0.159,1.775315698934719
0.16,1.7817649628268555
0.161,1.78434466838371
0.162,1.788214226718992
0.163,1.801112754503265
0.164,1.7933736378327012
0.165,1.792083785054274
0.166,1.7869243739405647
0.167,1.7727359933778644
0.168,1.771446140599437
0.169,1.7366201155818999
0.17,1.7404896739171818
0.171,1.7340404100250453
0.17200000000000001,1.7134027655702084
0.17300000000000001,1.7211418822407722
0.17400000000000002,1.7275911461329088
0.17500000000000002,1.7224317350191996
0.176,1.7520983489230275
0.177,1.7404896739171818
0.178,1.7611273183720186
0.179,1.7830548156052828
0.18,1.7688664350425825
0.181,1.7998229017248377
0.182,1.7985330489464104
0.183,1.7985330489464104
0.184,1.7972431961679831
0.185,1.792083785054274
0.186,1.7778954044915736
0.187,1.7804751100484282
0.188,1.758547612815164
0.189,1.745649085030891
0.19,1.749518643366173
0.191,1.7172723239054903
0.192,1.7224317350191996
0.193,1.7340404100250453
0.194,1.7275911461329088
0.195,1.732750557246618
0.196,1.749518643366173
0.197,1.7391998211387545
0.198,1.7675765822641551
0.199,1.7817649628268555
0.2,1.775315698934719
0.201,1.804982312838547
0.202,1.8036924600601196
0.203,1.7985330489464104
0.20400000000000001,1.7972431961679831
0.20500000000000002,1.7907939322758466
0.20600000000000002,1.7778954044915736
0.20700000000000002,1.7830548156052828
0.20800000000000002,1.749518643366173
0.209,1.7469389378093183
0.21,1.7469389378093183
0.211,1.7146926183486357
0.212,1.7185621766839176
0.213,1.7340404100250453
0.214,1.7237215877976269
0.215,1.7340404100250453
0.216,1.7469389378093183
0.217,1.745649085030891
0.218,1.7778954044915736
0.219,1.7701562878210098
0.22,1.788214226718992
0.221,1.8088518711738288
0.222,1.7998229017248377
0.223,1.801112754503265
0.224,1.7985330489464104
0.225,1.7869243739405647
0.226,1.78434466838371
0.227,1.7701562878210098
0.228,1.7482287905877456
0.229,1.7546780544798821
0.23,1.7340404100250453
0.231,1.7211418822407722
0.232,1.7237215877976269
0.233,1.7263012933544815
0.234,1.7263012933544815
0.23500000000000001,1.7391998211387545
0.23600000000000002,1.7353302628034726
0.23700000000000002,1.7662867294857278
0.23800000000000002,1.7830548156052828
0.23900000000000002,1.7675765822641551
0.24,1.7985330489464104
0.241,1.8024026072816923
0.242,1.801112754503265
0.243,1.801112754503265
0.244,1.7985330489464104
0.245,1.7817649628268555
0.246,1.7895040794974193
0.247,1.7611273183720186
0.248,1.7546780544798821
0.249,1.7637070239288732
0.25,1.7237215877976269
0.251,1.7340404100250453
0.252,1.7301708516897634
0.253,1.7172723239054903
0.254,1.7263012933544815
0.255,1.741779526695609
0.256,1.7391998211387545
0.257,1.7701562878210098
0.258,1.7727359933778644
0.259,1.7740258461562917
0.26,1.8062721656169742
0.261,1.7946634906111285
0.262,1.801112754503265
0.263,1.8036924600601196
0.264,1.7946634906111285
0.265,1.7869243739405647
0.266,1.7869243739405647
0.267,1.7533882017014548
0.268,1.7598374655935913
0.269,1.7533882017014548
0.27,1.7211418822407722
0.271,1.7366201155818999
0.272,1.7366201155818999
0.273,1.7224317350191996
0.274,1.732750557246618
0.275,1.745649085030891
0.276,1.7482287905877456
0.277,1.7740258461562917
0.278,1.7598374655935913
0.279,1.788214226718992
0.28,1.8062721656169742
0.281,1.788214226718992
0.28200000000000003,1.8024026072816923
0.28300000000000003,1.8075620183954015
0.28400000000000003,1.7946634906111285
0.28500000000000003,1.7869243739405647
0.28600000000000003,1.7701562878210098
0.28700000000000003,1.762417171150446
0.28800000000000003,1.7688664350425825
0.289,1.7391998211387545
0.29,1.732750557246618
0.291,1.7353302628034726
0.292,1.7275911461329088
0.293,1.7314607044681907
0.294,1.7379099683603272
0.295,1.7314607044681907
0.296,1.7598374655935913
0.297,1.7688664350425825
0.298,1.7637070239288732
0.299,1.7959533433895558
0.3,1.7895040794974193
0.301,1.801112754503265
0.302,1.8062721656169742
0.303,1.801112754503265
0.304,1.7946634906111285
0.305,1.7869243739405647
0.306,1.762417171150446
0.307,1.7675765822641551
0.308,1.7662867294857278
0.309,1.7275911461329088
0.31,1.7379099683603272
0.311,1.7353302628034726
0.312,1.7211418822407722
0.313,1.7263012933544815
0.314,1.745649085030891
0.315,1.7404896739171818
0.316,1.7778954044915736
0.317,1.7546780544798821
0.318,1.7804751100484282
0.319,1.804982312838547
0.32,1.78434466838371
0.321,1.8024026072816923
0.322,1.804982312838547
0.323,1.7985330489464104
0.324,1.7907939322758466
0.325,1.7907939322758466
0.326,1.7637070239288732
0.327,1.7701562878210098
0.328,1.7469389378093183
0.329,1.732750557246618
0.33,1.7430693794740364
0.331,1.7301708516897634
0.332,1.7224317350191996
0.333,1.7353302628034726
0.334,1.7366201155818999
0.335,1.7482287905877456
0.336,1.7637070239288732
0.337,1.7533882017014548
0.338,1.7830548156052828
0.339,1.792083785054274
0.34,1.7895040794974193
0.341,1.7998229017248377
0.342,1.8062721656169742
0.343,1.7998229017248377
0.34400000000000003,1.7856345211621374
0.34500000000000003,1.775315698934719
0.34600000000000003,1.7727359933778644
0.34700000000000003,1.775315698934719
0.34800000000000003,1.7366201155818999
0.34900000000000003,1.741779526695609
0.35000000000000003,1.7404896739171818
0.35100000000000003,1.7237215877976269
0.352,1.7224317350191996
0.353,1.7353302628034726
0.354,1.7314607044681907
0.355,1.762417171150446
0.356,1.7546780544798821
0.357,1.7572577600367367
0.358,1.7946634906111285
0.359,1.78434466838371
0.36,1.7972431961679831
0.361,1.804982312838547
0.362,1.7985330489464104
0.363,1.7998229017248377
0.364,1.792083785054274
0.365,1.7701562878210098
0.366,1.775315698934719
0.367,1.7611273183720186
0.368,1.7353302628034726
0.369,1.7482287905877456
0.37,1.7314607044681907
0.371,1.7275911461329088
0.372,1.7275911461329088
0.373,1.7314607044681907
0.374,1.7404896739171818
0.375,1.7637070239288732
0.376,1.7430693794740364
0.377,1.7766055517131463
0.378,1.788214226718992
0.379,1.7856345211621374
0.38,1.8062721656169742
0.381,1.8062721656169742
0.382,1.8024026072816923
0.383,1.7972431961679831
0.384,1.7933736378327012
0.385,1.7791852572700009
0.386,1.7869243739405647
0.387,1.7469389378093183
0.388,1.749518643366173
0.389,1.7443592322524637
0.39,1.715982471127063
0.391,1.7224317350191996
0.392,1.7340404100250453
0.393,1.7275911461329088
0.394,1.7391998211387545
0.395,1.745649085030891
0.396,1.762417171150446
0.397,1.7830548156052828
0.398,1.7701562878210098
0.399,1.792083785054274
0.4,1.8127214295091107
0.401,1.7998229017248377
0.402,1.8024026072816923
0.403,1.7959533433895558
0.404,1.78434466838371
0.405,1.7830548156052828
0.406,1.771446140599437
0.40700000000000003,1.7430693794740364
0.40800000000000003,1.7482287905877456
0.40900000000000003,1.7314607044681907
0.41000000000000003,1.7185621766839176
0.41100000000000003,1.7224317350191996
0.41200000000000003,1.7275911461329088
0.41300000000000003,1.7301708516897634
0.41400000000000003,1.7430693794740364
0.41500000000000004,1.7404896739171818
0.41600000000000004,1.7662867294857278
0.417,1.7856345211621374
0.418,1.7740258461562917
0.419,1.792083785054274
0.42,1.8062721656169742
0.421,1.801112754503265
0.422,1.7972431961679831
0.423,1.7959533433895558
0.424,1.78434466838371
0.425,1.78434466838371
0.426,1.7611273183720186
0.427,1.7508084961446002
0.428,1.7559679072583094
0.429,1.7224317350191996
0.43,1.7237215877976269
0.431,1.7263012933544815
0.432,1.7301708516897634
0.433,1.7353302628034726
0.434,1.7533882017014548
0.435,1.7430693794740364
0.436,1.771446140599437
0.437,1.7804751100484282
0.438,1.7727359933778644
0.439,1.8088518711738288
0.44,1.804982312838547
0.441,1.801112754503265
0.442,1.8036924600601196
0.443,1.7959533433895558
0.444,1.7817649628268555
0.445,1.788214226718992
0.446,1.7508084961446002
0.447,1.758547612815164
0.448,1.7546780544798821
0.449,1.7172723239054903
0.45,1.7275911461329088
0.451,1.7353302628034726
0.452,1.7224317350191996
0.453,1.732750557246618
0.454,1.745649085030891
0.455,1.7482287905877456
0.456,1.7791852572700009
0.457,1.7675765822641551
0.458,1.7817649628268555
0.459,1.8088518711738288
0.46,1.8036924600601196
0.461,1.8024026072816923
0.462,1.7998229017248377
0.463,1.7946634906111285
0.464,1.7856345211621374
0.465,1.7817649628268555
0.466,1.749518643366173
0.467,1.7598374655935913
0.468,1.745649085030891
0.46900000000000003,1.7185621766839176
0.47000000000000003,1.7224317350191996
0.47100000000000003,1.7301708516897634
0.47200000000000003,1.7224317350191996
0.47300000000000003,1.7301708516897634
0.47400000000000003,1.7391998211387545
0.47500000000000003,1.7559679072583094
0.47600000000000003,1.7804751100484282
0.47700000000000004,1.7649968767073005
0.47800000000000004,1.788214226718992
0.47900000000000004,1.8075620183954015
0.48,1.8036924600601196
0.481,1.801112754503265
0.482,1.7998229017248377
0.483,1.788214226718992
0.484,1.788214226718992
0.485,1.7701562878210098
0.486,1.7520983489230275
0.487,1.762417171150446
0.488,1.728880998911336
0.489,1.7263012933544815
0.49,1.7275911461329088
0.491,1.7263012933544815
0.492,1.7275911461329088
0.493,1.7404896739171818
0.494,1.7340404100250453
0.495,1.7611273183720186
0.496,1.7662867294857278
0.497,1.7649968767073005
0.498,1.7998229017248377
0.499,1.8024026072816923
0.5,1.804982312838547
0.501,1.7998229017248377
0.502,1.7959533433895558
0.503,1.788214226718992
0.504,1.7946634906111285
0.505,1.7649968767073005
0.506,1.7572577600367367
0.507,1.7637070239288732
0.508,1.7185621766839176
0.509,1.7353302628034726
0.51,1.728880998911336
0.511,1.7224317350191996
0.512,1.7275911461329088
0.513,1.7430693794740364
0.514,1.7379099683603272
0.515,1.771446140599437
0.516,1.7701562878210098
0.517,1.7688664350425825
0.518,1.8036924600601196
0.519,1.7933736378327012
0.52,1.7946634906111285
0.521,1.7998229017248377
0.522,1.792083785054274
0.523,1.7856345211621374
0.524,1.7895040794974193
0.525,1.7482287905877456
0.526,1.7598374655935913
0.527,1.7598374655935913
0.528,1.719852029462345
0.529,1.7353302628034726
0.53,1.732750557246618
0.531,1.7224317350191996
0.532,1.728880998911336
0.533,1.7404896739171818
0.534,1.7443592322524637
0.535,1.771446140599437
0.536,1.7598374655935913
0.537,1.7817649628268555
0.538,1.8075620183954015
0.539,1.7856345211621374
0.54,1.7998229017248377
0.541,1.7946634906111285
0.542,1.7895040794974193
0.543,1.7869243739405647
0.544,1.775315698934719
0.545,1.7598374655935913
0.546,1.7662867294857278
0.547,1.7469389378093183
0.548,1.7275911461329088
0.549,1.7391998211387545
0.55,1.7275911461329088
0.551,1.728880998911336
0.552,1.7340404100250453
0.553,1.7404896739171818
0.554,1.7533882017014548
0.555,1.7688664350425825
0.556,1.7533882017014548
0.557,1.7907939322758466
0.558,1.7985330489464104
0.559,1.7895040794974193
0.56,1.8036924600601196
0.561,1.804982312838547
0.562,1.792083785054274
0.5630000000000001,1.7830548156052828
0.5640000000000001,1.7688664350425825
0.5650000000000001,1.7611273183720186
0.5660000000000001,1.7701562878210098
0.5670000000000001,1.7366201155818999
0.5680000000000001,1.7314607044681907
0.5690000000000001,1.7340404100250453
0.5700000000000001,1.7211418822407722
0.5710000000000001,1.7275911461329088
0.5720000000000001,1.7391998211387545
0.5730000000000001,1.732750557246618
0.5740000000000001,1.7649968767073005
0.5750000000000001,1.7675765822641551
0.5760000000000001,1.7637070239288732
0.577,1.7972431961679831
0.578,1.7946634906111285
0.579,1.7959533433895558
0.58,1.8036924600601196
0.581,1.8024026072816923
0.582,1.792083785054274
0.583,1.7830548156052828
0.584,1.758547612815164
0.585,1.7649968767073005
0.586,1.7572577600367367
0.587,1.728880998911336
0.588,1.7366201155818999
0.589,1.7340404100250453
0.59,1.7237215877976269
0.591,1.7275911461329088
0.592,1.7404896739171818
0.593,1.741779526695609
0.594,1.7637070239288732
0.595,1.7520983489230275
0.596,1.775315698934719
0.597,1.7972431961679831
0.598,1.7856345211621374
0.599,1.7998229017248377
0.6,1.7998229017248377
0.601,1.7972431961679831
0.602,1.792083785054274
0.603,1.788214226718992
0.604,1.7598374655935913
0.605,1.7701562878210098
0.606,1.7482287905877456
0.607,1.7275911461329088
0.608,1.7430693794740364
0.609,1.728880998911336
0.61,1.7237215877976269
0.611,1.728880998911336
0.612,1.7353302628034726
0.613,1.749518643366173
0.614,1.7637070239288732
0.615,1.749518643366173
0.616,1.7856345211621374
0.617,1.7933736378327012
0.618,1.7869243739405647
0.619,1.801112754503265
0.62,1.804982312838547
0.621,1.792083785054274
0.622,1.7907939322758466
0.623,1.771446140599437
0.624,1.771446140599437
0.625,1.7740258461562917
0.626,1.7366201155818999
0.627,1.7404896739171818
0.628,1.7379099683603272
0.629,1.715982471127063
0.63,1.7250114405760542
0.631,1.7366201155818999
0.632,1.7340404100250453
0.633,1.758547612815164
0.634,1.7546780544798821
0.635,1.7598374655935913
0.636,1.792083785054274
0.637,1.7817649628268555
0.638,1.7933736378327012
0.639,1.801112754503265
0.64,1.801112754503265
0.641,1.7933736378327012
0.642,1.7856345211621374
0.643,1.7675765822641551
0.644,1.7662867294857278
0.645,1.7662867294857278
0.646,1.7379099683603272
0.647,1.7404896739171818
0.648,1.728880998911336
0.649,1.7275911461329088
0.65,1.7237215877976269
0.651,1.7353302628034726
0.652,1.7391998211387545
0.653,1.7637070239288732
0.654,1.7520983489230275
0.655,1.7727359933778644
0.656,1.792083785054274
0.657,1.7766055517131463
0.658,1.8036924600601196
0.659,1.804982312838547
0.66,1.7985330489464104
0.661,1.7959533433895558
0.662,1.7895040794974193
0.663,1.7662867294857278
0.664,1.771446140599437
0.665,1.745649085030891
0.666,1.7353302628034726
0.667,1.7430693794740364
0.668,1.7005042377859354
0.669,1.7211418822407722
0.67,1.7314607044681907
0.671,1.7250114405760542
0.672,1.7353302628034726
0.673,1.749518643366173
0.674,1.7430693794740364
0.675,1.7740258461562917
0.676,1.7804751100484282
0.677,1.7804751100484282
0.678,1.8062721656169742
0.679,1.7972431961679831
0.68,1.792083785054274
0.681,1.7869243739405647
0.682,1.7766055517131463
0.683,1.7649968767073005
0.684,1.7740258461562917
0.685,1.7340404100250453
0.686,1.732750557246618
0.687,1.7275911461329088
0.6880000000000001,1.7082433544564992
0.6890000000000001,1.7082433544564992
0.6900000000000001,1.7211418822407722
0.6910000000000001,1.7134027655702084
0.6920000000000001,1.7301708516897634
0.6930000000000001,1.728880998911336
0.6940000000000001,1.749518643366173
0.6950000000000001,1.7740258461562917
0.6960000000000001,1.7598374655935913
0.6970000000000001,1.7830548156052828
0.6980000000000001,1.7946634906111285
0.6990000000000001,1.78434466838371
0.7000000000000001,1.7804751100484282
0.7010000000000001,1.7778954044915736
0.7020000000000001,1.7662867294857278
0.7030000000000001,1.7662867294857278
0.704,1.7469389378093183
0.705,1.7237215877976269
0.706,1.7301708516897634
0.707,1.7043737961212173
0.708,1.70308394334279
0.709,1.7056636488996446
0.71,1.7056636488996446
0.711,1.7108230600133538
0.712,1.728880998911336
0.713,1.7146926183486357
0.714,1.7443592322524637
0.715,1.7559679072583094
0.716,1.7482287905877456
0.717,1.7791852572700009
0.718,1.7778954044915736
0.719,1.7701562878210098
0.72,1.7701562878210098
0.721,1.7637070239288732
0.722,1.7520983489230275
0.723,1.7572577600367367
0.724,1.7224317350191996
0.725,1.7224317350191996
0.726,1.7211418822407722
0.727,1.6876057100016624
0.728,1.6940549738937989
0.729,1.7056636488996446
0.73,1.6927651211153716
0.731,1.7017940905643627
0.732,1.7095332072349265
0.733,1.7121129127917811
0.734,1.741779526695609
0.735,1.7353302628034726
0.736,1.7443592322524637
0.737,1.7740258461562917
0.738,1.7649968767073005
0.739,1.7675765822641551
0.74,1.7649968767073005
0.741,1.7533882017014548
0.742,1.745649085030891
0.743,1.7404896739171818
0.744,1.7095332072349265
0.745,1.715982471127063
0.746,1.7043737961212173
0.747,1.677286887774244
0.748,1.6811564461095259
0.749,1.690185415558517
0.75,1.6837361516663805
0.751,1.6914752683369443
0.752,1.6940549738937989
0.753,1.7185621766839176
0.754,1.7353302628034726
0.755,1.7211418822407722
0.756,1.7508084961446002
0.757,1.762417171150446
0.758,1.7546780544798821
0.759,1.7572577600367367
0.76,1.7559679072583094
0.761,1.745649085030891
0.762,1.7469389378093183
0.763,1.7250114405760542
0.764,1.7095332072349265
0.765,1.7211418822407722
0.766,1.6876057100016624
0.767,1.6798665933310986
0.768,1.6850260044448078
0.769,1.6824462988879532
0.77,1.6824462988879532
0.771,1.6914752683369443
0.772,1.6876057100016624
0.773,1.7211418822407722
0.774,1.7263012933544815
0.775,1.719852029462345
0.776,1.7572577600367367
0.777,1.7533882017014548
0.778,1.749518643366173
0.779,1.7559679072583094
0.78,1.7559679072583094
0.781,1.741779526695609
0.782,1.7482287905877456
0.783,1.7172723239054903
0.784,1.7134027655702084
0.785,1.7172723239054903
0.786,1.6695477711036801
0.787,1.6914752683369443
0.788,1.6876057100016624
0.789,1.6747071822173893
0.79,1.6824462988879532
0.791,1.6979245322290808
0.792,1.699214385007508
0.793,1.7301708516897634
0.794,1.7185621766839176
0.795,1.732750557246618
0.796,1.7611273183720186
0.797,1.7430693794740364
0.798,1.7572577600367367
0.799,1.7546780544798821
0.8,1.7520983489230275
0.801,1.7430693794740364
0.802,1.741779526695609
0.803,1.7146926183486357
0.804,1.719852029462345
0.805,1.7017940905643627
0.806,1.6850260044448078
0.807,1.6940549738937989
0.808,1.6824462988879532
0.809,1.6837361516663805
0.81,1.6914752683369443
0.811,1.6966346794506535
0.812,1.7095332072349265
0.8130000000000001,1.7211418822407722
0.8140000000000001,1.7134027655702084
0.8150000000000001,1.741779526695609
0.8160000000000001,1.7546780544798821
0.8170000000000001,1.7469389378093183
0.8180000000000001,1.7598374655935913
0.8190000000000001,1.7572577600367367
0.8200000000000001,1.745649085030891
0.8210000000000001,1.7430693794740364
0.8220000000000001,1.7263012933544815
0.8230000000000001,1.7146926183486357
0.8240000000000001,1.7263012933544815
0.8250000000000001,1.6876057100016624
0.8260000000000001,1.6914752683369443
0.8270000000000001,1.690185415558517
0.8280000000000001,1.673417329438962
0.8290000000000001,1.6811564461095259
0.8300000000000001,1.6914752683369443
0.8310000000000001,1.690185415558517
0.8320000000000001,1.715982471127063
0.833,1.7134027655702084
0.834,1.7108230600133538
0.835,1.749518643366173
0.836,1.7391998211387545
0.837,1.745649085030891
0.838,1.7533882017014548
0.839,1.7520983489230275
0.84,1.745649085030891
0.841,1.7366201155818999
0.842,1.706953501678072
0.843,1.7172723239054903
0.844,1.7108230600133538
0.845,1.6759970349958166
0.846,1.6888955627800897
0.847,1.6785767405526713
0.848,1.6682579183252528
0.849,1.673417329438962
0.85,1.6824462988879532
0.851,1.686315857223235
0.852,1.7146926183486357
0.853,1.699214385007508
0.854,1.7237215877976269
0.855,1.7469389378093183
0.856,1.728880998911336
0.857,1.741779526695609
0.858,1.749518643366173
0.859,1.7443592322524637
0.86,1.7353302628034726
0.861,1.7314607044681907
0.862,1.7095332072349265
0.863,1.7185621766839176
0.864,1.690185415558517
0.865,1.6876057100016624
0.866,1.6888955627800897
0.867,1.6759970349958166
0.868,1.6656782127683982
0.869,1.6759970349958166
0.87,1.677286887774244
0.871,1.6953448266722262
0.872,1.70308394334279
0.873,1.6979245322290808
0.874,1.732750557246618
0.875,1.728880998911336
0.876,1.7340404100250453
0.877,1.741779526695609
0.878,1.7469389378093183
0.879,1.7379099683603272
0.88,1.7391998211387545
0.881,1.7121129127917811
0.882,1.719852029462345
0.883,1.7146926183486357
0.884,1.6785767405526713
0.885,1.6876057100016624
0.886,1.677286887774244
0.887,1.664388359989971
0.888,1.6708376238821074
0.889,1.6785767405526713
0.89,1.6759970349958166
0.891,1.7043737961212173
0.892,1.6940549738937989
0.893,1.7108230600133538
0.894,1.7391998211387545
0.895,1.719852029462345
0.896,1.741779526695609
0.897,1.7469389378093183
0.898,1.7469389378093183
0.899,1.745649085030891
0.9,1.7353302628034726
0.901,1.7146926183486357
0.902,1.7237215877976269
0.903,1.7043737961212173
0.904,1.6850260044448078
0.905,1.6927651211153716
0.906,1.664388359989971
0.907,1.6695477711036801
0.908,1.677286887774244
0.909,1.6721274766605347
0.91,1.6811564461095259
0.911,1.7017940905643627
0.912,1.6850260044448078
0.913,1.719852029462345
0.914,1.7275911461329088
0.915,1.7275911461329088
0.916,1.7520983489230275
0.917,1.7533882017014548
0.918,1.7430693794740364
0.919,1.741779526695609
0.92,1.7340404100250453
0.921,1.7250114405760542
0.922,1.7146926183486357
0.923,1.6953448266722262
0.924,1.6940549738937989
0.925,1.6876057100016624
0.926,1.664388359989971
0.927,1.6656782127683982
0.928,1.6798665933310986
0.929,1.673417329438962
0.93,1.6811564461095259
0.931,1.6850260044448078
0.932,1.7043737961212173
0.933,1.7275911461329088
0.934,1.7121129127917811
0.935,1.7391998211387545
0.936,1.7482287905877456
0.937,1.7443592322524637
0.9380000000000001,1.7443592322524637
0.9390000000000001,1.7430693794740364
0.9400000000000001,1.7275911461329088
0.9410000000000001,1.7314607044681907
0.9420000000000001,1.7146926183486357
0.9430000000000001,1.6927651211153716
0.9440000000000001,1.7005042377859354
0.9450000000000001,1.6721274766605347
0.9460000000000001,1.6759970349958166
0.9470000000000001,1.6747071822173893
0.9480000000000001,1.6695477711036801
0.9490000000000001,1.6824462988879532
0.9500000000000001,1.690185415558517
0.9510000000000001,1.6850260044448078
0.9520000000000001,1.7121129127917811
0.9530000000000001,1.7146926183486357
0.9540000000000001,1.715982471127063
0.9550000000000001,1.7508084961446002
0.9560000000000001,1.7391998211387545
0.9570000000000001,1.7404896739171818
0.9580000000000001,1.745649085030891
0.9590000000000001,1.7430693794740364
0.96,1.728880998911336
0.961,1.732750557246618
0.962,1.699214385007508
0.963,1.7043737961212173
0.964,1.70308394334279
0.965,1.6630985072115436
0.966,1.6695477711036801
0.967,1.686315857223235
0.968,1.673417329438962
0.969,1.6798665933310986
0.97,1.6940549738937989
0.971,1.6966346794506535
0.972,1.7211418822407722
0.973,1.7108230600133538
0.974,1.7263012933544815
0.975,1.7520983489230275
0.976,1.7520983489230275
0.977,1.7520983489230275
0.978,1.7482287905877456
0.979,1.7404896739171818
0.98,1.7314607044681907
0.981,1.7314607044681907
0.982,1.6940549738937989
0.983,1.7082433544564992
0.984,1.6888955627800897
0.985,1.6669680655468255
0.986,1.6682579183252528
0.987,1.677286887774244
0.988,1.6708376238821074
0.989,1.6824462988879532
0.99,1.6695477711036801
0.991,1.7005042377859354
0.992,1.7185621766839176
0.993,1.6979245322290808
0.994,1.7366201155818999
0.995,1.745649085030891
0.996,1.7404896739171818
0.997,1.7482287905877456
0.998,1.7391998211387545
0.999,1.7314607044681907
1.0,1.7250114405760542
1.0010000000000001,1.7108230600133538
1.002,1.6953448266722262
1.0030000000000001,1.70308394334279
1.004,1.673417329438962
1.0050000000000001,1.677286887774244
1.006,1.673417329438962
1.0070000000000001,1.6656782127683982
1.008,1.6669680655468255
1.0090000000000001,1.6759970349958166
1.01,1.6721274766605347
1.0110000000000001,1.7043737961212173
1.012,1.7056636488996446
1.0130000000000001,1.7082433544564992
1.014,1.7391998211387545
1.0150000000000001,1.728880998911336
1.016,1.741779526695609
1.0170000000000001,1.7404896739171818
1.018,1.7430693794740364
1.0190000000000001,1.7340404100250453
1.02,1.7353302628034726
1.0210000000000001,1.6979245322290808
1.022,1.7095332072349265
1.0230000000000001,1.699214385007508
1.024,1.6630985072115436
1.025,1.6785767405526713
1.026,1.6695477711036801
1.027,1.664388359989971
1.028,1.6695477711036801
1.029,1.6824462988879532
1.03,1.6837361516663805
1.031,1.7121129127917811
1.032,1.6953448266722262
1.033,1.7172723239054903
1.034,1.745649085030891
1.035,1.7237215877976269
1.036,1.741779526695609
1.037,1.745649085030891
1.038,1.7366201155818999
1.039,1.7314607044681907
1.04,1.7250114405760542
1.041,1.6953448266722262
1.042,1.7121129127917811
1.043,1.6850260044448078
1.044,1.6682579183252528
1.045,1.6837361516663805
1.046,1.6669680655468255
1.047,1.6656782127683982
1.048,1.6708376238821074
1.049,1.6811564461095259
1.05,1.6940549738937989
1.051,1.7146926183486357
1.052,1.6966346794506535
1.053,1.7263012933544815
1.054,1.7391998211387545
1.055,1.7275911461329088
1.056,1.7430693794740364
1.057,1.7443592322524637
1.058,1.7340404100250453
1.059,1.7301708516897634
1.06,1.7134027655702084
1.061,1.706953501678072
1.062,1.7108230600133538
1.063,1.6785767405526713
1.064,1.677286887774244
1.065,1.6811564461095259
1.066,1.6630985072115436
1.067,1.6669680655468255
1.068,1.6798665933310986
1.069,1.677286887774244
1.07,1.7005042377859354
1.071,1.6979245322290808
1.072,1.7017940905643627
1.073,1.7353302628034726
1.074,1.7301708516897634
1.075,1.7340404100250453
1.076,1.7469389378093183
1.077,1.7430693794740364
1.078,1.7379099683603272
1.079,1.7301708516897634
1.08,1.7095332072349265
1.081,1.715982471127063
1.082,1.7056636488996446
1.083,1.6747071822173893
1.084,1.6824462988879532
1.085,1.6721274766605347
1.086,1.6618086544331163
1.087,1.6682579183252528
1.088,1.677286887774244
1.089,1.6798665933310986
1.09,1.7043737961212173
1.091,1.6914752683369443
1.092,1.7185621766839176
1.093,1.7366201155818999
1.094,1.7211418822407722
1.095,1.7469389378093183
1.096,1.7430693794740364
1.097,1.7379099683603272
1.098,1.7391998211387545
1.099,1.7301708516897634
1.1,1.7095332072349265
1.101,1.715982471127063
1.102,1.6850260044448078
1.103,1.6837361516663805
1.104,1.6850260044448078
1.105,1.664388359989971
1.106,1.6656782127683982
1.107,1.6708376238821074
1.108,1.6721274766605347
1.109,1.6914752683369443
1.11,1.6940549738937989
1.111,1.6953448266722262
1.112,1.7275911461329088
1.113,1.7250114405760542
1.114,1.7340404100250453
1.115,1.741779526695609
1.116,1.7443592322524637
1.117,1.7404896739171818
1.118,1.7353302628034726
1.119,1.7301708516897634
1.12,1.7250114405760542
1.121,1.7108230600133538
1.122,1.6811564461095259
1.123,1.6837361516663805
1.124,1.6721274766605347
1.125,1.664388359989971
1.1260000000000001,1.6695477711036801
1.127,1.673417329438962
1.1280000000000001,1.677286887774244
1.129,1.6979245322290808
1.1300000000000001,1.686315857223235
1.131,1.7056636488996446
1.1320000000000001,1.7275911461329088
1.133,1.7172723239054903
1.1340000000000001,1.7430693794740364
1.135,1.7430693794740364
1.1360000000000001,1.741779526695609
1.137,1.7391998211387545
1.1380000000000001,1.7366201155818999
1.139,1.7237215877976269
1.1400000000000001,1.7250114405760542
1.141,1.699214385007508
1.1420000000000001,1.6876057100016624
1.143,1.6966346794506535
1.1440000000000001,1.6630985072115436
1.145,1.6682579183252528
1.1460000000000001,1.6759970349958166
1.147,1.6669680655468255
1.1480000000000001,1.677286887774244
1.149,1.6927651211153716
1.1500000000000001,1.6850260044448078
1.151,1.715982471127063
1.1520000000000001,1.7185621766839176
1.153,1.7224317350191996
1.154,1.7469389378093183
1.155,1.7430693794740364
1.156,1.741779526695609
1.157,1.7404896739171818
1.158,1.732750557246618
1.159,1.7275911461329088
1.16,1.7224317350191996
1.161,1.6927651211153716
1.162,1.699214385007508
1.163,1.686315857223235
1.164,1.6682579183252528
1.165,1.664388359989971
1.166,1.673417329438962
1.167,1.6695477711036801
1.168,1.677286887774244
1.169,1.6811564461095259
1.17,1.6953448266722262
1.171,1.715982471127063
1.172,1.7082433544564992
1.173,1.732750557246618
1.174,1.7469389378093183
1.175,1.741779526695609
1.176,1.7430693794740364
1.177,1.741779526695609
1.178,1.728880998911336
1.179,1.7301708516897634
1.18,1.7146926183486357
1.181,1.7056636488996446
1.182,1.7017940905643627
1.183,1.6669680655468255
1.184,1.6747071822173893
1.185,1.6721274766605347
1.186,1.6695477711036801
1.187,1.6708376238821074
1.188,1.6850260044448078
1.189,1.6798665933310986
1.19,1.7121129127917811
1.191,1.7108230600133538
1.192,1.7134027655702084
1.193,1.7443592322524637
1.194,1.7379099683603272
1.195,1.7404896739171818
1.196,1.7430693794740364
1.197,1.7430693794740364
1.198,1.7314607044681907
1.199,1.728880998911336
1.2,1.6953448266722262
1.201,1.7043737961212173
1.202,1.6953448266722262
1.203,1.664388359989971
1.204,1.6759970349958166
1.205,1.6721274766605347
1.206,1.664388359989971
1.207,1.6708376238821074
1.208,1.6811564461095259
1.209,1.690185415558517
1.21,1.7146926183486357
1.211,1.7043737961212173
1.212,1.7250114405760542
1.213,1.7443592322524637
1.214,1.728880998911336
1.215,1.745649085030891
1.216,1.7391998211387545
1.217,1.732750557246618
1.218,1.7314607044681907
1.219,1.7211418822407722
1.22,1.7005042377859354
1.221,1.7082433544564992
1.222,1.6850260044448078
1.223,1.6695477711036801
1.224,1.6798665933310986
1.225,1.6682579183252528
1.226,1.6695477711036801
1.227,1.6747071822173893
1.228,1.6811564461095259
1.229,1.699214385007508
1.23,1.7108230600133538
1.231,1.7005042377859354
1.232,1.7314607044681907
1.233,1.7366201155818999
1.234,1.7275911461329088
1.235,1.7430693794740364
1.236,1.745649085030891
1.237,1.7340404100250453
1.238,1.7301708516897634
1.239,1.7095332072349265
1.24,1.706953501678072
1.241,1.7056636488996446
1.242,1.6721274766605347
1.243,1.6747071822173893
1.244,1.6798665933310986
1.245,1.6618086544331163
1.246,1.6695477711036801
1.247,1.6811564461095259
1.248,1.6785767405526713
1.249,1.706953501678072
1.25,1.7005042377859354
1.2510000000000001,1.7108230600133538
1.252,1.7391998211387545
1.2530000000000001,1.7301708516897634
1.254,1.745649085030891
1.2550000000000001,1.7443592322524637
1.256,1.7404896739171818
1.2570000000000001,1.7391998211387545
1.258,1.728880998911336
1.2590000000000001,1.706953501678072
1.26,1.7121129127917811
1.2610000000000001,1.6979245322290808
1.262,1.6721274766605347
1.2630000000000001,1.6824462988879532
1.264,1.6721274766605347
1.2650000000000001,1.6682579183252528
1.266,1.6630985072115436
1.2670000000000001,1.6798665933310986
1.268,1.6888955627800897
1.2690000000000001,1.706953501678072
1.27,1.6927651211153716
1.2710000000000001,1.7237215877976269
1.272,1.7353302628034726
1.2730000000000001,1.7263012933544815
1.274,1.7379099683603272
1.2750000000000001,1.7469389378093183
1.276,1.7404896739171818
1.2770000000000001,1.7353302628034726
1.278,1.7185621766839176
1.2790000000000001,1.7108230600133538
1.28,1.7146926183486357
1.281,1.6785767405526713
1.282,1.686315857223235
1.283,1.6824462988879532
1.284,1.664388359989971
1.285,1.6708376238821074
1.286,1.6759970349958166
1.287,1.677286887774244
1.288,1.6966346794506535
1.289,1.6927651211153716
1.29,1.7017940905643627
1.291,1.7275911461329088
1.292,1.7275911461329088
1.293,1.7379099683603272
1.294,1.7469389378093183
1.295,1.7404896739171818
1.296,1.741779526695609
1.297,1.7314607044681907
1.298,1.7134027655702084
1.299,1.7185621766839176
1.3,1.7043737961212173
1.301,1.6811564461095259
1.302,1.686315857223235
1.303,1.6708376238821074
1.304,1.660518801654689
1.305,1.6747071822173893
1.306,1.673417329438962
1.307,1.6785767405526713
1.308,1.7017940905643627
1.309,1.690185415558517
1.31,1.7146926183486357
1.311,1.7263012933544815
1.312,1.7211418822407722
1.313,1.745649085030891
1.314,1.7482287905877456
1.315,1.7353302628034726
1.316,1.7391998211387545
1.317,1.7314607044681907
1.318,1.7172723239054903
1.319,1.7224317350191996
1.32,1.6940549738937989
1.321,1.6927651211153716
1.322,1.6876057100016624
1.323,1.6630985072115436
1.324,1.6669680655468255
1.325,1.6721274766605347
1.326,1.6669680655468255
1.327,1.6811564461095259
1.328,1.690185415558517
1.329,1.690185415558517
1.33,1.719852029462345
1.331,1.715982471127063
1.332,1.7314607044681907
1.333,1.7508084961446002
1.334,1.7469389378093183
1.335,1.7404896739171818
1.336,1.7366201155818999
1.337,1.732750557246618
1.338,1.7250114405760542
1.339,1.719852029462345
1.34,1.6876057100016624
1.341,1.6927651211153716
1.342,1.6785767405526713
1.343,1.6656782127683982
1.344,1.6656782127683982
1.345,1.673417329438962
1.346,1.6759970349958166
1.347,1.6837361516663805
1.348,1.6811564461095259
1.349,1.7043737961212173
1.35,1.7211418822407722
1.351,1.7121129127917811
1.352,1.7404896739171818
1.353,1.7443592322524637
1.354,1.7391998211387545
1.355,1.741779526695609
1.356,1.741779526695609
1.357,1.7224317350191996
1.358,1.7263012933544815
1.359,1.7056636488996446
1.36,1.6940549738937989
1.361,1.699214385007508
1.362,1.6630985072115436
1.363,1.6721274766605347
1.364,1.6759970349958166
1.365,1.6669680655468255
1.366,1.673417329438962
1.367,1.686315857223235
1.368,1.6850260044448078
1.369,1.7108230600133538
1.37,1.7121129127917811
1.371,1.7211418822407722
1.372,1.7443592322524637
1.373,1.7443592322524637
1.374,1.741779526695609
1.375,1.7430693794740364
1.3760000000000001,1.7391998211387545
1.377,1.728880998911336
1.3780000000000001,1.7237215877976269
1.379,1.6966346794506535
1.3800000000000001,1.7005042377859354
1.381,1.686315857223235
1.3820000000000001,1.6630985072115436
1.383,1.664388359989971
1.3840000000000001,1.6695477711036801
1.385,1.6669680655468255
1.3860000000000001,1.6721274766605347
1.387,1.6759970349958166
1.3880000000000001,1.6914752683369443
1.389,1.7108230600133538
1.3900000000000001,1.7017940905643627
1.391,1.7340404100250453
1.3920000000000001,1.7430693794740364
1.393,1.745649085030891
1.3940000000000001,1.7430693794740364
1.395,1.7391998211387545
1.3960000000000001,1.7340404100250453
1.397,1.7250114405760542
1.3980000000000001,1.7134027655702084
1.399,1.6940549738937989
1.4000000000000001,1.7056636488996446
1.401,1.6721274766605347
1.4020000000000001,1.6682579183252528
1.403,1.6721274766605347
1.4040000000000001,1.6656782127683982
1.405,1.6708376238821074
1.4060000000000001,1.6785767405526713
1.407,1.6721274766605347
1.408,1.7017940905643627
1.409,1.7146926183486357
1.41,1.7043737961212173
1.411,1.741779526695609
1.412,1.7379099683603272
1.413,1.7391998211387545
1.414,1.7430693794740364
1.415,1.7379099683603272
1.416,1.7301708516897634
1.417,1.7353302628034726
1.418,1.7017940905643627
1.419,1.70308394334279
1.42,1.7017940905643627
1.421,1.6682579183252528
1.422,1.677286887774244
1.423,1.6682579183252528
1.424,1.660518801654689
1.425,1.6708376238821074
1.426,1.6811564461095259
1.427,1.6824462988879532
1.428,1.7108230600133538
1.429,1.699214385007508
1.43,1.7185621766839176
1.431,1.7430693794740364
1.432,1.728880998911336
1.433,1.7443592322524637
1.434,1.7469389378093183
1.435,1.7379099683603272
1.436,1.7314607044681907
1.437,1.7237215877976269
1.438,1.7017940905643627
1.439,1.7121129127917811
1.44,1.6914752683369443
1.441,1.6695477711036801
1.442,1.6824462988879532
1.443,1.6747071822173893
1.444,1.6656782127683982
1.445,1.673417329438962
1.446,1.6811564461095259
1.447,1.6927651211153716
1.448,1.7146926183486357
1.449,1.6953448266722262
1.45,1.7237215877976269
1.451,1.7404896739171818
1.452,1.728880998911336
1.453,1.7443592322524637
1.454,1.745649085030891
1.455,1.7353302628034726
1.456,1.7301708516897634
1.457,1.7172723239054903
1.458,1.7056636488996446
1.459,1.7121129127917811
1.46,1.6785767405526713
1.461,1.6798665933310986
1.462,1.6811564461095259
1.463,1.660518801654689
1.464,1.6669680655468255
1.465,1.6785767405526713
1.466,1.677286887774244
1.467,1.699214385007508
1.468,1.686315857223235
1.469,1.7005042377859354
1.47,1.7353302628034726
1.471,1.7275911461329088
1.472,1.7379099683603272
1.473,1.7430693794740364
1.474,1.7404896739171818
1.475,1.7353302628034726
1.476,1.7301708516897634
1.477,1.70308394334279
1.478,1.715982471127063
1.479,1.7056636488996446
1.48,1.6759970349958166
1.481,1.6850260044448078
1.482,1.6695477711036801
1.483,1.6630985072115436
1.484,1.6682579183252528
1.485,1.673417329438962
1.486,1.6798665933310986
1.487,1.7082433544564992
1.488,1.6914752683369443
1.489,1.7146926183486357
1.49,1.7353302628034726
1.491,1.7250114405760542
1.492,1.745649085030891
1.493,1.745649085030891
1.494,1.741779526695609
1.495,1.7366201155818999
1.496,1.7314607044681907
1.497,1.7108230600133538
1.498,1.715982471127063
1.499,1.690185415558517
1.5,1.686315857223235
1.5010000000000001,1.6837361516663805
1.502,1.6630985072115436
1.5030000000000001,1.6656782127683982
1.504,1.673417329438962
1.5050000000000001,1.6721274766605347
1.506,1.6811564461095259
1.5070000000000001,1.6940549738937989
1.508,1.6979245322290808
1.5090000000000001,1.7250114405760542
1.51,1.7211418822407722
1.5110000000000001,1.732750557246618
1.512,1.741779526695609
1.5130000000000001,1.7443592322524637
1.514,1.7379099683603272
1.5150000000000001,1.7379099683603272
1.516,1.728880998911336
1.5170000000000001,1.7185621766839176
1.518,1.7134027655702084
1.5190000000000001,1.6798665933310986
1.52,1.686315857223235
1.5210000000000001,1.673417329438962
1.522,1.6656782127683982
1.5230000000000001,1.6656782127683982
1.524,1.673417329438962
1.5250000000000001,1.6721274766605347
1.526,1.6966346794506535
1.5270000000000001,1.6876057100016624
1.528,1.706953501678072
1.5290000000000001,1.7275911461329088
1.53,1.715982471127063
1.5310000000000001,1.7469389378093183
1.532,1.7469389378093183
1.5330000000000001,1.7353302628034726
1.534,1.7404896739171818
1.5350000000000001,1.7353302628034726
1.536,1.7211418822407722
1.537,1.7250114405760542
1.538,1.699214385007508
1.539,1.690185415558517
1.54,1.6940549738937989
1.541,1.660518801654689
1.542,1.664388359989971
1.543,1.6747071822173893
1.544,1.6656782127683982
1.545,1.6747071822173893
1.546,1.6914752683369443
1.547,1.690185415558517
1.548,1.7172723239054903
1.549,1.7121129127917811
1.55,1.7263012933544815
1.551,1.7482287905877456
1.552,1.7443592322524637
1.553,1.7404896739171818
1.554,1.7391998211387545
1.555,1.7340404100250453
1.556,1.7263012933544815
1.557,1.719852029462345
1.558,1.6940549738937989
1.559,1.699214385007508
1.56,1.6785767405526713
1.561,1.664388359989971
1.562,1.664388359989971
1.563,1.6708376238821074
1.564,1.6721274766605347
1.565,1.6759970349958166
1.566,1.677286887774244
1.567,1.706953501678072
1.568,1.7172723239054903
1.569,1.7095332072349265
1.57,1.7340404100250453
1.571,1.741779526695609
1.572,1.741779526695609
1.573,1.741779526695609
1.574,1.7404896739171818
1.575,1.7301708516897634
1.576,1.7314607044681907
1.577,1.706953501678072
1.578,1.70308394334279
1.579,1.70308394334279
1.58,1.6669680655468255
1.581,1.6695477711036801
1.582,1.673417329438962
1.583,1.6656782127683982
1.584,1.673417329438962
1.585,1.6850260044448078
1.586,1.677286887774244
1.587,1.7121129127917811
1.588,1.706953501678072
1.589,1.7108230600133538
1.59,1.741779526695609
1.591,1.7314607044681907
1.592,1.7379099683603272
1.593,1.7430693794740364
1.594,1.7391998211387545
1.595,1.7301708516897634
1.596,1.732750557246618
1.597,1.7134027655702084
1.598,1.7056636488996446
1.599,1.6940549738937989
1.6,1.6656782127683982
1.601,1.6824462988879532
1.602,1.6747071822173893
1.603,1.6630985072115436
1.604,1.673417329438962
1.605,1.6824462988879532
1.606,1.6850260044448078
1.607,1.7082433544564992
1.608,1.7017940905643627
1.609,1.732750557246618
1.61,1.741779526695609
1.611,1.7275911461329088
1.612,1.7430693794740364
1.613,1.7391998211387545
1.614,1.7379099683603272
1.615,1.7301708516897634
1.616,1.7146926183486357
1.617,1.7005042377859354
1.618,1.7017940905643627
1.619,1.6837361516663805
1.62,1.677286887774244
1.621,1.6759970349958166
1.622,1.6630985072115436
1.623,1.6695477711036801
1.624,1.6785767405526713
1.625,1.6798665933310986
1.6260000000000001,1.70308394334279
1.627,1.6979245322290808
1.6280000000000001,1.7043737961212173
1.629,1.7366201155818999
1.6300000000000001,1.7340404100250453
1.631,1.7366201155818999
1.6320000000000001,1.7391998211387545
1.633,1.7391998211387545
1.6340000000000001,1.7391998211387545
1.635,1.7314607044681907
1.6360000000000001,1.7043737961212173
1.637,1.7134027655702084
1.6380000000000001,1.7056636488996446
1.639,1.6682579183252528
1.6400000000000001,1.6824462988879532
1.641,1.677286887774244
1.6420000000000001,1.6682579183252528
1.643,1.6695477711036801
1.6440000000000001,1.677286887774244
1.645,1.6785767405526713
1.6460000000000001,1.7082433544564992
1.647,1.6953448266722262
1.6480000000000001,1.7134027655702084
1.649,1.7379099683603272
1.6500000000000001,1.7263012933544815
1.651,1.7430693794740364
1.6520000000000001,1.7508084961446002
1.653,1.7353302628034726
1.6540000000000001,1.732750557246618
1.655,1.728880998911336
1.6560000000000001,1.706953501678072
1.657,1.715982471127063
1.6580000000000001,1.690185415558517
1.659,1.6721274766605347
1.6600000000000001,1.686315857223235
1.661,1.6721274766605347
1.6620000000000001,1.664388359989971
1.663,1.673417329438962
1.6640000000000001,1.6747071822173893
1.665,1.6940549738937989
1.666,1.7005042377859354
1.667,1.6966346794506535
1.668,1.719852029462345
1.669,1.7314607044681907
1.67,1.7301708516897634
1.671,1.7391998211387545
1.672,1.745649085030891
1.673,1.7379099683603272
1.674,1.7340404100250453
1.675,1.7275911461329088
1.676,1.7121129127917811
1.677,1.7108230600133538
1.678,1.6811564461095259
1.679,1.6837361516663805
1.68,1.6747071822173893
1.681,1.6630985072115436
1.682,1.6656782127683982
1.683,1.6759970349958166
1.684,1.6759970349958166
1.685,1.6966346794506535
1.686,1.690185415558517
1.687,1.706953501678072
1.688,1.7275911461329088
1.689,1.719852029462345
1.69,1.7430693794740364
1.691,1.7443592322524637
1.692,1.741779526695609
1.693,1.7391998211387545
1.694,1.7366201155818999
1.695,1.7108230600133538
1.696,1.7172723239054903
1.697,1.706953501678072
1.698,1.6798665933310986
1.699,1.6888955627800897
1.7,1.6708376238821074
1.701,1.6630985072115436
1.702,1.6695477711036801
1.703,1.6721274766605347
1.704,1.6747071822173893
1.705,1.699214385007508
1.706,1.6876057100016624
1.707,1.7134027655702084
1.708,1.7263012933544815
1.709,1.7185621766839176
1.71,1.745649085030891
1.711,1.7482287905877456
1.712,1.7391998211387545
1.713,1.7379099683603272
1.714,1.7340404100250453
1.715,1.7172723239054903
1.716,1.7263012933544815
1.717,1.6940549738937989
1.718,1.6914752683369443
1.719,1.6850260044448078
1.72,1.6618086544331163
1.721,1.664388359989971
1.722,1.673417329438962
1.723,1.6669680655468255
1.724,1.6721274766605347
1.725,1.6888955627800897
1.726,1.6953448266722262
1.727,1.7146926183486357
1.728,1.7146926183486357
1.729,1.7314607044681907
1.73,1.7469389378093183
1.731,1.7443592322524637
1.732,1.7379099683603272
1.733,1.7379099683603272
1.734,1.7263012933544815
1.735,1.7185621766839176
1.736,1.7172723239054903
1.737,1.6888955627800897
1.738,1.6914752683369443
1.739,1.6721274766605347
1.74,1.6618086544331163
1.741,1.664388359989971
1.742,1.6682579183252528
1.743,1.6669680655468255
1.744,1.673417329438962
1.745,1.6785767405526713
1.746,1.7005042377859354
1.747,1.715982471127063
1.748,1.6979245322290808
1.749,1.7353302628034726
1.75,1.7443592322524637
1.7510000000000001,1.7353302628034726
1.752,1.7366201155818999
1.7530000000000001,1.7340404100250453
1.754,1.7224317350191996
1.7550000000000001,1.7237215877976269
1.756,1.6927651211153716
1.7570000000000001,1.6876057100016624
1.758,1.6914752683369443
1.7590000000000001,1.6579390960978344
1.76,1.6630985072115436
1.7610000000000001,1.6669680655468255
1.762,1.6579390960978344
1.7630000000000001,1.6682579183252528
1.764,1.677286887774244
1.7650000000000001,1.677286887774244
1.766,1.6979245322290808
1.7670000000000001,1.7082433544564992
1.768,1.7043737961212173
1.7690000000000001,1.7379099683603272
1.77,1.7301708516897634
1.7710000000000001,1.7353302628034726
1.772,1.7314607044681907
1.7730000000000001,1.7275911461329088
1.774,1.7121129127917811
1.7750000000000001,1.7172723239054903
1.776,1.686315857223235
1.7770000000000001,1.6850260044448078
1.778,1.6837361516663805
1.7790000000000001,1.6540695377625525
1.78,1.651489832205698
1.7810000000000001,1.6618086544331163
1.782,1.6540695377625525
1.7830000000000001,1.6630985072115436
1.784,1.6682579183252528
1.7850000000000001,1.677286887774244
1.786,1.7005042377859354
1.7870000000000001,1.6914752683369443
1.788,1.7134027655702084
1.7890000000000001,1.7314607044681907
1.79,1.7314607044681907
1.7910000000000001,1.7275911461329088
1.792,1.728880998911336
1.793,1.719852029462345
1.794,1.7121129127917811
1.795,1.7017940905643627
1.796,1.6811564461095259
1.797,1.686315857223235
1.798,1.664388359989971
1.799,1.651489832205698
1.8,1.6579390960978344
1.801,1.6489101266488433
1.802,1.6553593905409798
1.803,1.6618086544331163
1.804,1.6579390960978344
1.805,1.6850260044448078
1.806,1.6927651211153716
1.807,1.6888955627800897
1.808,1.719852029462345
1.809,1.715982471127063
1.81,1.7237215877976269
1.811,1.728880998911336
1.812,1.7237215877976269
1.813,1.7134027655702084
1.814,1.7134027655702084
1.815,1.6824462988879532
1.816,1.6876057100016624
1.817,1.6824462988879532
1.818,1.6489101266488433
1.819,1.6579390960978344
1.82,1.6540695377625525
1.821,1.6463304210919887
1.822,1.6463304210919887
1.823,1.6618086544331163
1.824,1.6618086544331163
1.825,1.6888955627800897
1.826,1.6785767405526713
1.827,1.6940549738937989
1.828,1.7250114405760542
1.829,1.706953501678072
1.83,1.719852029462345
1.831,1.7237215877976269
1.832,1.7172723239054903
1.833,1.7108230600133538
1.834,1.7043737961212173
1.835,1.6811564461095259
1.836,1.686315857223235
1.837,1.6656782127683982
1.838,1.6489101266488433
1.839,1.6553593905409798
1.84,1.6501999794272706
1.841,1.6385913044214249
1.842,1.6489101266488433
1.843,1.6540695377625525
1.844,1.6695477711036801
1.845,1.6759970349958166
1.846,1.6759970349958166
1.847,1.7017940905643627
1.848,1.706953501678072
1.849,1.70308394334279
1.85,1.7172723239054903
1.851,1.719852029462345
1.852,1.706953501678072
1.853,1.7043737961212173
1.854,1.6837361516663805
1.855,1.6876057100016624
1.856,1.6824462988879532
1.857,1.6450405683135614
1.858,1.6553593905409798
1.859,1.6450405683135614
1.86,1.630852187750861
1.861,1.6360115988645703
1.862,1.6463304210919887
1.863,1.651489832205698
1.864,1.6747071822173893
1.865,1.6618086544331163
1.866,1.6824462988879532
1.867,1.7005042377859354
1.868,1.6914752683369443
1.869,1.715982471127063
1.87,1.715982471127063
1.871,1.7082433544564992
1.872,1.70308394334279
1.873,1.7017940905643627
1.874,1.6824462988879532
1.875,1.6837361516663805
1.8760000000000001,1.6669680655468255
1.877,1.6489101266488433
1.8780000000000001,1.6527796849841252
1.879,1.6269826294155791
1.8800000000000001,1.6360115988645703
1.881,1.643750715535134
1.8820000000000001,1.6360115988645703
1.883,1.643750715535134
1.8840000000000001,1.6669680655468255
1.885,1.660518801654689
1.8860000000000001,1.6850260044448078
1.887,1.6940549738937989
1.8880000000000001,1.6953448266722262
1.889,1.7172723239054903
1.8900000000000001,1.7108230600133538
1.891,1.70308394334279
1.8920000000000001,1.706953501678072
1.893,1.6953448266722262
1.8940000000000001,1.6850260044448078
1.895,1.6785767405526713
1.8960000000000001,1.6501999794272706
1.897,1.6527796849841252
1.8980000000000001,1.643750715535134
1.899,1.6295623349724337
1.9000000000000001,1.6321420405292884
1.901,1.6385913044214249
1.9020000000000001,1.634721746086143
1.903,1.6450405683135614
1.9040000000000001,1.6450405683135614
1.905,1.6682579183252528
1.9060000000000001,1.690185415558517
1.907,1.6759970349958166
1.9080000000000001,1.706953501678072
1.909,1.7095332072349265
1.9100000000000001,1.70308394334279
1.911,1.70308394334279
1.9120000000000001,1.6953448266722262
1.913,1.6876057100016624
1.9140000000000001,1.6850260044448078
1.915,1.6618086544331163
1.9160000000000001,1.6540695377625525
1.917,1.651489832205698
1.9180000000000001,1.6205333655234426
1.919,1.630852187750861
1.92,1.634721746086143
1.921,1.6244029238587245
1.922,1.6334318933077157
1.923,1.651489832205698
1.924,1.6450405683135614
1.925,1.673417329438962
1.926,1.6747071822173893
1.927,1.6785767405526713
1.928,1.7056636488996446
1.929,1.7056636488996446
1.93,1.7005042377859354
1.931,1.699214385007508
1.932,1.690185415558517
1.933,1.6811564461095259
1.934,1.6824462988879532
1.935,1.651489832205698
1.936,1.6553593905409798
1.937,1.643750715535134
1.938,1.6192435127450153
1.939,1.62182321830187
1.94,1.630852187750861
1.941,1.62182321830187
1.942,1.6334318933077157
1.943,1.6385913044214249
1.944,1.647620273870416
1.945,1.6759970349958166
1.946,1.6618086544331163
1.947,1.6837361516663805
1.948,1.7056636488996446
1.949,1.6966346794506535
1.95,1.699214385007508
1.951,1.6979245322290808
1.952,1.686315857223235
1.953,1.6888955627800897
1.954,1.6708376238821074
1.955,1.6527796849841252
1.956,1.6579390960978344
1.957,1.6295623349724337
1.958,1.6244029238587245
1.959,1.6256927766371518
1.96,1.62182321830187
1.961,1.6244029238587245
1.962,1.6360115988645703
1.963,1.630852187750861
1.964,1.6592289488762617
1.965,1.6656782127683982
1.966,1.664388359989971
1.967,1.6927651211153716
1.968,1.6927651211153716
1.969,1.6966346794506535
1.97,1.6940549738937989
1.971,1.6940549738937989
1.972,1.6850260044448078
1.973,1.6850260044448078
1.974,1.6553593905409798
1.975,1.6592289488762617
1.976,1.6527796849841252
1.977,1.6205333655234426
1.978,1.6295623349724337
1.979,1.6256927766371518
1.98,1.6166638071881607
1.981,1.6231130710802972
1.982,1.6373014516429976
1.983,1.6385913044214249
1.984,1.6682579183252528
1.985,1.6553593905409798
1.986,1.6747071822173893
1.987,1.6966346794506535
1.988,1.6811564461095259
1.989,1.6979245322290808
1.99,1.699214385007508
1.991,1.690185415558517
1.992,1.6837361516663805
1.993,1.6759970349958166
1.994,1.630852187750861
1.995,1.656649243319407
1.996,1.6385913044214249
1.997,1.6244029238587245
1.998,1.634721746086143
1.999,1.6153739544097334
2.0,1.6231130710802972
2.001,1.6256927766371518
2.0020000000000002,1.6295623349724337
2.003,1.6489101266488433
2.004,1.664388359989971
2.005,1.6527796849841252
2.0060000000000002,1.6824462988879532
2.007,1.686315857223235
2.008,1.6837361516663805
2.009,1.6927651211153716
2.0100000000000002,1.6979245322290808
2.011,1.690185415558517
2.012,1.686315857223235
2.013,1.656649243319407
2.0140000000000002,1.660518801654689
2.015,1.6630985072115436
2.016,1.6256927766371518
2.017,1.634721746086143
2.0180000000000002,1.6295623349724337
2.019,1.6153739544097334
2.02,1.617953659966588
2.021,1.6295623349724337
2.0220000000000002,1.6295623349724337
2.023,1.656649243319407
2.024,1.6424608627567068
2.025,1.664388359989971
2.0260000000000002,1.6914752683369443
2.027,1.677286887774244
2.028,1.6953448266722262
2.029,1.6979245322290808
2.0300000000000002,1.6940549738937989
2.031,1.6850260044448078
2.032,1.6811564461095259
2.033,1.656649243319407
2.0340000000000003,1.6592289488762617
2.035,1.643750715535134
2.036,1.6282724821940064
2.037,1.6360115988645703
2.0380000000000003,1.6192435127450153
2.039,1.6153739544097334
2.04,1.6231130710802972
2.041,1.6231130710802972
2.0420000000000003,1.630852187750861
2.043,1.651489832205698
2.044,1.6411710099782795
2.045,1.6695477711036801
2.0460000000000003,1.6759970349958166
2.047,1.6785767405526713
2.048,1.6850260044448078
2.049,1.6953448266722262
2.05,1.6888955627800897
2.051,1.6888955627800897
2.052,1.6785767405526713
2.053,1.6721274766605347
2.054,1.664388359989971
2.055,1.630852187750861
2.056,1.634721746086143
2.057,1.6282724821940064
2.058,1.6102145432960242
2.059,1.6140841016313061
2.06,1.6244029238587245
2.061,1.6244029238587245
2.062,1.6463304210919887
2.063,1.6373014516429976
2.064,1.6592289488762617
2.065,1.6759970349958166
2.066,1.6630985072115436
2.067,1.6914752683369443
2.068,1.6927651211153716
2.069,1.6914752683369443
2.07,1.690185415558517
2.071,1.6876057100016624
2.072,1.6721274766605347
2.073,1.6759970349958166
2.074,1.6489101266488433
2.075,1.6398811571998522
2.076,1.6450405683135614
2.077,1.6127942488528788
2.078,1.62182321830187
2.079,1.6244029238587245
2.08,1.617953659966588
2.081,1.6231130710802972
2.082,1.6424608627567068
2.083,1.6360115988645703
2.084,1.6630985072115436
2.085,1.6669680655468255
2.086,1.6721274766605347
2.087,1.7017940905643627
2.088,1.6953448266722262
2.089,1.6927651211153716
2.09,1.6914752683369443
2.091,1.6850260044448078
2.092,1.6747071822173893
2.093,1.6682579183252528
2.094,1.6398811571998522
2.095,1.6463304210919887
2.096,1.6321420405292884
2.097,1.6140841016313061
2.098,1.6140841016313061
2.099,1.6205333655234426
2.1,1.6153739544097334
2.101,1.6282724821940064
2.102,1.6282724821940064
2.103,1.6540695377625525
2.104,1.6656782127683982
2.105,1.6540695377625525
2.106,1.6850260044448078
2.107,1.6940549738937989
2.108,1.6876057100016624
2.109,1.6888955627800897
2.11,1.6927651211153716
2.111,1.6785767405526713
2.112,1.6837361516663805
2.113,1.647620273870416
2.114,1.656649243319407
2.115,1.6527796849841252
2.116,1.6153739544097334
2.117,1.6282724821940064
2.118,1.6244029238587245
2.119,1.617953659966588
2.12,1.6205333655234426
2.121,1.630852187750861
2.122,1.634721746086143
2.123,1.6553593905409798
2.124,1.651489832205698
2.125,1.6708376238821074
2.126,1.6966346794506535
2.1270000000000002,1.677286887774244
2.128,1.6953448266722262
2.129,1.6927651211153716
2.13,1.6888955627800897
2.1310000000000002,1.6798665933310986
2.132,1.6747071822173893
2.133,1.6527796849841252
2.134,1.656649243319407
2.1350000000000002,1.6463304210919887
2.136,1.6192435127450153
2.137,1.6295623349724337
2.138,1.6231130710802972
2.1390000000000002,1.6166638071881607
2.14,1.6256927766371518
2.141,1.6321420405292884
2.142,1.647620273870416
2.1430000000000002,1.660518801654689
2.144,1.6463304210919887
2.145,1.677286887774244
2.146,1.6837361516663805
2.1470000000000002,1.6837361516663805
2.148,1.6940549738937989
2.149,1.6979245322290808
2.15,1.686315857223235
2.1510000000000002,1.6798665933310986
2.152,1.6618086544331163
2.153,1.660518801654689
2.154,1.6553593905409798
2.1550000000000002,1.6231130710802972
2.156,1.630852187750861
2.157,1.6244029238587245
2.158,1.6153739544097334
2.1590000000000003,1.617953659966588
2.16,1.630852187750861
2.161,1.6334318933077157
2.162,1.6579390960978344
2.1630000000000003,1.6424608627567068
2.164,1.6682579183252528
2.165,1.6850260044448078
2.166,1.6721274766605347
2.1670000000000003,1.6979245322290808
2.168,1.6927651211153716
2.169,1.6888955627800897
2.17,1.6888955627800897
2.1710000000000003,1.6824462988879532
2.172,1.660518801654689
2.173,1.6682579183252528
2.174,1.6373014516429976
2.1750000000000003,1.6282724821940064
2.176,1.6373014516429976
2.177,1.6166638071881607
2.178,1.6205333655234426
2.179,1.6244029238587245
2.18,1.62182321830187
2.181,1.643750715535134
2.182,1.6501999794272706
2.183,1.6450405683135614
2.184,1.6759970349958166
2.185,1.6759970349958166
2.186,1.6824462988879532
2.187,1.690185415558517
2.188,1.6940549738937989
2.189,1.690185415558517
2.19,1.6888955627800897
2.191,1.6759970349958166
2.192,1.6695477711036801
2.193,1.660518801654689
2.194,1.6373014516429976
2.195,1.6385913044214249
2.196,1.6244029238587245
2.197,1.6140841016313061
2.198,1.6153739544097334
2.199,1.6269826294155791
2.2,1.6231130710802972
2.201,1.6463304210919887
2.202,1.6360115988645703
2.203,1.6579390960978344
2.204,1.6759970349958166
2.205,1.6682579183252528
2.206,1.690185415558517
2.207,1.6979245322290808
2.208,1.6940549738937989
2.209,1.6888955627800897
2.21,1.6876057100016624
2.211,1.6669680655468255
2.212,1.6721274766605347
2.213,1.6489101266488433
2.214,1.6373014516429976
2.215,1.6424608627567068
2.216,1.6127942488528788
2.217,1.6127942488528788
2.218,1.62182321830187
2.219,1.6192435127450153
2.22,1.6282724821940064
2.221,1.6398811571998522
2.222,1.634721746086143
2.223,1.6682579183252528
2.224,1.6669680655468255
2.225,1.6721274766605347
2.226,1.699214385007508
2.227,1.6940549738937989
2.228,1.690185415558517
2.229,1.6888955627800897
2.23,1.6837361516663805
2.231,1.6759970349958166
2.232,1.6669680655468255
2.233,1.6385913044214249
2.234,1.6501999794272706
2.235,1.6295623349724337
2.236,1.6153739544097334
2.237,1.6192435127450153
2.238,1.62182321830187
2.239,1.6205333655234426
2.24,1.6269826294155791
2.241,1.630852187750861
2.242,1.6501999794272706
2.243,1.6682579183252528
2.244,1.6579390960978344
2.245,1.6850260044448078
2.246,1.7005042377859354
2.247,1.6888955627800897
2.248,1.690185415558517
2.249,1.6927651211153716
2.25,1.6824462988879532
2.251,1.6785767405526713
2.2520000000000002,1.6527796849841252
2.253,1.643750715535134
2.254,1.647620273870416
2.255,1.6231130710802972
2.2560000000000002,1.6166638071881607
2.257,1.6192435127450153
2.258,1.617953659966588
2.259,1.6166638071881607
2.2600000000000002,1.6295623349724337
2.261,1.6269826294155791
2.262,1.656649243319407
2.263,1.6630985072115436
2.2640000000000002,1.6618086544331163
2.265,1.6940549738937989
2.266,1.6914752683369443
2.267,1.6914752683369443
2.2680000000000002,1.6927651211153716
2.269,1.6876057100016624
2.27,1.6785767405526713
2.271,1.6811564461095259
2.2720000000000002,1.6385913044214249
2.273,1.6540695377625525
2.274,1.6450405683135614
2.275,1.6166638071881607
2.2760000000000002,1.6244029238587245
2.277,1.6166638071881607
2.278,1.6166638071881607
2.279,1.6231130710802972
2.2800000000000002,1.6360115988645703
2.281,1.6360115988645703
2.282,1.6618086544331163
2.283,1.651489832205698
2.2840000000000003,1.6759970349958166
2.285,1.6927651211153716
2.286,1.690185415558517
2.287,1.690185415558517
2.2880000000000003,1.6888955627800897
2.289,1.6837361516663805
2.29,1.6785767405526713
2.291,1.6721274766605347
2.2920000000000003,1.6501999794272706
2.293,1.656649243319407
2.294,1.6334318933077157
2.295,1.6231130710802972
2.2960000000000003,1.630852187750861
2.297,1.617953659966588
2.298,1.6205333655234426
2.299,1.6282724821940064
2.3000000000000003,1.6295623349724337
2.301,1.6501999794272706
2.302,1.660518801654689
2.303,1.6527796849841252
2.3040000000000003,1.6837361516663805
2.305,1.6837361516663805
2.306,1.686315857223235
2.307,1.6940549738937989
2.308,1.6940549738937989
2.309,1.6824462988879532
2.31,1.6785767405526713
2.311,1.6527796849841252
2.312,1.6553593905409798
2.313,1.6553593905409798
2.314,1.62182321830187
2.315,1.630852187750861
2.316,1.630852187750861
2.317,1.608924690517597
2.318,1.617953659966588
2.319,1.6295623349724337
2.32,1.6295623349724337
2.321,1.6579390960978344
2.322,1.643750715535134
2.323,1.6682579183252528
2.324,1.686315857223235
2.325,1.6759970349958166
2.326,1.6888955627800897
2.327,1.6940549738937989
2.328,1.6888955627800897
2.329,1.6876057100016624
2.33,1.677286887774244
2.331,1.656649243319407
2.332,1.6630985072115436
2.333,1.6424608627567068
2.334,1.630852187750861
2.335,1.6334318933077157
2.336,1.62182321830187
2.337,1.6140841016313061
2.338,1.6231130710802972
2.339,1.6244029238587245
2.34,1.6398811571998522
2.341,1.651489832205698
2.342,1.647620273870416
2.343,1.677286887774244
2.344,1.677286887774244
2.345,1.6837361516663805
2.346,1.6914752683369443
2.347,1.6966346794506535
2.348,1.6888955627800897
2.349,1.6785767405526713
2.35,1.6656782127683982
2.351,1.6656782127683982
2.352,1.6656782127683982
2.353,1.6321420405292884
2.354,1.634721746086143
2.355,1.6256927766371518
2.356,1.6140841016313061
2.357,1.6127942488528788
2.358,1.6269826294155791
2.359,1.6269826294155791
2.36,1.6489101266488433
2.361,1.6398811571998522
2.362,1.656649243319407
2.363,1.6837361516663805
2.364,1.673417329438962
2.365,1.6914752683369443
2.366,1.6940549738937989
2.367,1.6876057100016624
2.368,1.6888955627800897
2.369,1.6824462988879532
2.37,1.6618086544331163
2.371,1.6669680655468255
2.372,1.6527796849841252
2.373,1.6373014516429976
2.374,1.6424608627567068
2.375,1.608924690517597
2.376,1.6140841016313061
2.3770000000000002,1.6231130710802972
2.378,1.6153739544097334
2.379,1.6282724821940064
2.38,1.6450405683135614
2.3810000000000002,1.6385913044214249
2.382,1.664388359989971
2.383,1.673417329438962
2.384,1.6747071822173893
2.3850000000000002,1.6979245322290808
2.386,1.6979245322290808
2.387,1.6927651211153716
2.388,1.6927651211153716
2.3890000000000002,1.6798665933310986
2.39,1.6721274766605347
2.391,1.677286887774244
2.392,1.6424608627567068
2.3930000000000002,1.6424608627567068
2.394,1.6334318933077157
2.395,1.608924690517597
2.396,1.6153739544097334
2.3970000000000002,1.6205333655234426
2.398,1.6205333655234426
2.399,1.6256927766371518
2.4,1.6385913044214249
2.4010000000000002,1.6463304210919887
2.402,1.6695477711036801
2.403,1.6630985072115436
2.404,1.686315857223235
2.4050000000000002,1.7005042377859354
2.406,1.6927651211153716
2.407,1.6927651211153716
2.408,1.6888955627800897
2.4090000000000003,1.6824462988879532
2.41,1.6759970349958166
2.411,1.6618086544331163
2.412,1.6424608627567068
2.4130000000000003,1.6463304210919887
2.414,1.62182321830187
2.415,1.6166638071881607
2.416,1.6140841016313061
2.4170000000000003,1.6166638071881607
2.418,1.6256927766371518
2.419,1.634721746086143
2.42,1.630852187750861
2.4210000000000003,1.6592289488762617
2.422,1.6682579183252528
2.423,1.664388359989971
2.424,1.6940549738937989
2.4250000000000003,1.690185415558517
2.426,1.690185415558517
2.427,1.6927651211153716
2.428,1.6888955627800897
2.4290000000000003,1.6811564461095259
2.43,1.6811564461095259
2.431,1.6501999794272706
2.432,1.6489101266488433
2.433,1.643750715535134
2.434,1.6140841016313061
2.435,1.6140841016313061
2.436,1.6231130710802972
2.437,1.6140841016313061
2.438,1.6256927766371518
2.439,1.6282724821940064
2.44,1.6373014516429976
2.441,1.6656782127683982
2.442,1.6592289488762617
2.443,1.6721274766605347
2.444,1.6940549738937989
2.445,1.6914752683369443
2.446,1.6914752683369443
2.447,1.6914752683369443
2.448,1.6837361516663805
2.449,1.6747071822173893
2.45,1.6708376238821074
2.451,1.647620273870416
2.452,1.6527796849841252
2.453,1.634721746086143
2.454,1.62182321830187
2.455,1.6166638071881607
2.456,1.6192435127450153
2.457,1.6192435127450153
2.458,1.6269826294155791
2.459,1.6205333655234426
2.46,1.6489101266488433
2.461,1.656649243319407
2.462,1.6579390960978344
2.463,1.686315857223235
2.464,1.6888955627800897
2.465,1.690185415558517
2.466,1.6927651211153716
2.467,1.6927651211153716
2.468,1.6824462988879532
2.469,1.6759970349958166
2.47,1.6540695377625525
2.471,1.6579390960978344
2.472,1.6527796849841252
2.473,1.6192435127450153
2.474,1.6282724821940064
2.475,1.6231130710802972
2.476,1.6127942488528788
2.477,1.6231130710802972
2.478,1.6282724821940064
2.479,1.6321420405292884
2.48,1.6618086544331163
2.481,1.6463304210919887
2.482,1.6695477711036801
2.483,1.6940549738937989
2.484,1.677286887774244
2.485,1.6979245322290808
2.486,1.6966346794506535
2.487,1.6888955627800897
2.488,1.6811564461095259
2.489,1.6759970349958166
2.49,1.6540695377625525
2.491,1.6618086544331163
2.492,1.6398811571998522
2.493,1.6256927766371518
2.494,1.634721746086143
2.495,1.6153739544097334
2.496,1.6166638071881607
2.497,1.6282724821940064
2.498,1.6256927766371518
2.499,1.643750715535134
2.5,1.6527796849841252
2.501,1.6463304210919887
2.5020000000000002,1.677286887774244
2.503,1.6811564461095259
2.504,1.6837361516663805
2.505,1.6953448266722262
2.5060000000000002,1.6966346794506535
2.507,1.6888955627800897
2.508,1.6850260044448078
2.509,1.6630985072115436
2.5100000000000002,1.6630985072115436
2.511,1.6592289488762617
2.512,1.6269826294155791
2.513,1.6334318933077157
2.5140000000000002,1.6231130710802972
2.515,1.6127942488528788
2.516,1.6192435127450153
2.517,1.6295623349724337
2.5180000000000002,1.6256927766371518
2.519,1.6501999794272706
2.52,1.6424608627567068
2.521,1.6618086544331163
2.5220000000000002,1.6837361516663805
2.523,1.6721274766605347
2.524,1.6914752683369443
2.525,1.6953448266722262
2.5260000000000002,1.6927651211153716
2.527,1.6876057100016624
2.528,1.686315857223235
2.529,1.6630985072115436
2.5300000000000002,1.6785767405526713
2.531,1.6463304210919887
2.532,1.630852187750861
2.533,1.6411710099782795
2.5340000000000003,1.6140841016313061
2.535,1.617953659966588
2.536,1.62182321830187
2.537,1.62182321830187
2.5380000000000003,1.630852187750861
2.539,1.6450405683135614
2.54,1.6398811571998522
2.541,1.6708376238821074
2.5420000000000003,1.6721274766605347
2.543,1.6785767405526713
2.544,1.70308394334279
2.545,1.699214385007508
2.5460000000000003,1.690185415558517
2.547,1.6876057100016624
2.548,1.6798665933310986
2.549,1.6708376238821074
2.5500000000000003,1.6708376238821074
2.551,1.6385913044214249
2.552,1.634721746086143
2.553,1.6334318933077157
2.5540000000000003,1.6063449849607423
2.555,1.6140841016313061
2.556,1.6244029238587245
2.557,1.6192435127450153
2.5580000000000003,1.6295623349724337
2.559,1.6373014516429976
2.56,1.6501999794272706
2.561,1.673417329438962
2.562,1.6656782127683982
2.563,1.686315857223235
2.564,1.70308394334279
2.565,1.6914752683369443
2.566,1.6914752683369443
2.567,1.6876057100016624
2.568,1.6759970349958166
2.569,1.6708376238821074
2.57,1.656649243319407
2.571,1.6360115988645703
2.572,1.6411710099782795
2.573,1.6192435127450153
2.574,1.6192435127450153
2.575,1.6244029238587245
2.576,1.6205333655234426
2.577,1.6256927766371518
2.578,1.6463304210919887
2.579,1.634721746086143
2.58,1.6592289488762617
2.581,1.6682579183252528
2.582,1.664388359989971
2.583,1.6876057100016624
2.584,1.6953448266722262
2.585,1.690185415558517
2.586,1.6888955627800897
2.587,1.690185415558517
2.588,1.6747071822173893
2.589,1.6785767405526713
2.59,1.643750715535134
2.591,1.6489101266488433
2.592,1.6450405683135614
2.593,1.6127942488528788
2.594,1.6192435127450153
2.595,1.6205333655234426
2.596,1.6166638071881607
2.597,1.6231130710802972
2.598,1.6360115988645703
2.599,1.6360115988645703
2.6,1.660518801654689
2.601,1.660518801654689
2.602,1.6721274766605347
2.603,1.6953448266722262
2.604,1.6940549738937989
2.605,1.6914752683369443
2.606,1.6927651211153716
2.607,1.6837361516663805
2.608,1.677286887774244
2.609,1.6708376238821074
2.61,1.643750715535134
2.611,1.647620273870416
2.612,1.6321420405292884
2.613,1.6127942488528788
2.614,1.6166638071881607
2.615,1.62182321830187
2.616,1.6153739544097334
2.617,1.6244029238587245
2.618,1.6295623349724337
2.619,1.643750715535134
2.62,1.6656782127683982
2.621,1.6527796849841252
2.622,1.6824462988879532
2.623,1.6940549738937989
2.624,1.6914752683369443
2.625,1.6914752683369443
2.626,1.6927651211153716
2.6270000000000002,1.6785767405526713
2.628,1.6824462988879532
2.629,1.6579390960978344
2.63,1.647620273870416
2.6310000000000002,1.6489101266488433
2.632,1.62182321830187
2.633,1.62182321830187
2.634,1.6231130710802972
2.6350000000000002,1.6127942488528788
2.636,1.6205333655234426
2.637,1.6295623349724337
2.638,1.6295623349724337
2.6390000000000002,1.660518801654689
2.64,1.6553593905409798
2.641,1.664388359989971
2.642,1.690185415558517
2.6430000000000002,1.6850260044448078
2.644,1.6914752683369443
2.645,1.690185415558517
2.646,1.690185415558517
2.6470000000000002,1.6824462988879532
2.648,1.6785767405526713
2.649,1.634721746086143
2.65,1.656649243319407
2.6510000000000002,1.643750715535134
2.652,1.6192435127450153
2.653,1.6244029238587245
2.654,1.62182321830187
2.6550000000000002,1.6127942488528788
2.656,1.6192435127450153
2.657,1.6321420405292884
2.658,1.6398811571998522
2.6590000000000003,1.6682579183252528
2.66,1.6463304210919887
2.661,1.6721274766605347
2.662,1.6914752683369443
2.6630000000000003,1.6759970349958166
2.664,1.6940549738937989
2.665,1.690185415558517
2.666,1.6837361516663805
2.6670000000000003,1.6785767405526713
2.668,1.6669680655468255
2.669,1.6501999794272706
2.67,1.6618086544331163
2.6710000000000003,1.630852187750861
2.672,1.6269826294155791
2.673,1.6321420405292884
2.674,1.6140841016313061
2.6750000000000003,1.6205333655234426
2.676,1.6231130710802972
2.677,1.6269826294155791
2.678,1.6501999794272706
2.6790000000000003,1.6527796849841252
2.68,1.6527796849841252
2.681,1.6811564461095259
2.682,1.6824462988879532
2.6830000000000003,1.6850260044448078
2.684,1.6914752683369443
2.685,1.6927651211153716
2.686,1.6876057100016624
2.6870000000000003,1.6798665933310986
2.688,1.6540695377625525
2.689,1.6618086544331163
2.69,1.6540695377625525
2.691,1.6205333655234426
2.692,1.6295623349724337
2.693,1.6205333655234426
2.694,1.6140841016313061
2.695,1.6205333655234426
2.696,1.6321420405292884
2.697,1.634721746086143
2.698,1.6540695377625525
2.699,1.6385913044214249
2.7,1.6630985072115436
2.701,1.6888955627800897
2.702,1.6747071822173893
2.703,1.6888955627800897
2.704,1.7005042377859354
2.705,1.6914752683369443
2.706,1.6888955627800897
2.707,1.6811564461095259
2.708,1.6592289488762617
2.709,1.664388359989971
2.71,1.643750715535134
2.711,1.6334318933077157
2.712,1.6385913044214249
2.713,1.6256927766371518
2.714,1.6192435127450153
2.715,1.6282724821940064
2.716,1.6244029238587245
2.717,1.643750715535134
2.718,1.6553593905409798
2.719,1.6501999794272706
2.72,1.6798665933310986
2.721,1.6876057100016624
2.722,1.6927651211153716
2.723,1.6953448266722262
2.724,1.7005042377859354
2.725,1.6953448266722262
2.726,1.6914752683369443
2.727,1.6798665933310986
2.728,1.673417329438962
2.729,1.6747071822173893
2.73,1.6411710099782795
2.731,1.6411710099782795
2.732,1.6334318933077157
2.733,1.6231130710802972
2.734,1.6231130710802972
2.735,1.630852187750861
2.736,1.630852187750861
2.737,1.6553593905409798
2.738,1.647620273870416
2.739,1.6656782127683982
2.74,1.6888955627800897
2.741,1.677286887774244
2.742,1.7017940905643627
2.743,1.7043737961212173
2.744,1.70308394334279
2.745,1.7005042377859354
2.746,1.699214385007508
2.747,1.6785767405526713
2.748,1.6876057100016624
2.749,1.6630985072115436
2.75,1.6501999794272706
2.751,1.651489832205698
2.7520000000000002,1.6269826294155791
2.753,1.6321420405292884
2.754,1.6398811571998522
2.755,1.634721746086143
2.7560000000000002,1.6424608627567068
2.757,1.6579390960978344
2.758,1.6540695377625525
2.759,1.6785767405526713
2.7600000000000002,1.6876057100016624
2.761,1.6888955627800897
2.762,1.715982471127063
2.763,1.7121129127917811
2.7640000000000002,1.706953501678072
2.765,1.7095332072349265
2.766,1.7017940905643627
2.767,1.6953448266722262
2.7680000000000002,1.6914752683369443
2.769,1.6630985072115436
2.77,1.6656782127683982
2.771,1.6553593905409798
2.7720000000000002,1.6282724821940064
2.773,1.6385913044214249
2.774,1.6501999794272706
2.775,1.6385913044214249
2.7760000000000002,1.6553593905409798
2.777,1.6489101266488433
2.778,1.677286887774244
2.779,1.6966346794506535
2.7800000000000002,1.6850260044448078
2.781,1.7121129127917811
2.782,1.7263012933544815
2.783,1.7211418822407722
2.7840000000000003,1.7185621766839176
2.785,1.7185621766839176
2.786,1.706953501678072
2.787,1.7121129127917811
2.7880000000000003,1.686315857223235
2.789,1.6785767405526713
2.79,1.6798665933310986
2.791,1.647620273870416
2.7920000000000003,1.6527796849841252
2.793,1.6501999794272706
2.794,1.6450405683135614
2.795,1.6553593905409798
2.7960000000000003,1.6682579183252528
2.797,1.6669680655468255
2.798,1.6914752683369443
2.799,1.6927651211153716
2.8000000000000003,1.6979245322290808
2.801,1.7263012933544815
2.802,1.728880998911336
2.803,1.7275911461329088
2.8040000000000003,1.7314607044681907
2.805,1.7301708516897634
2.806,1.7185621766839176
2.807,1.7146926183486357
2.8080000000000003,1.686315857223235
2.809,1.6966346794506535
2.81,1.6850260044448078
2.811,1.6540695377625525
2.8120000000000003,1.6682579183252528
2.813,1.660518801654689
2.814,1.660518801654689
2.815,1.6618086544331163
2.816,1.6785767405526713
2.817,1.6798665933310986
2.818,1.7043737961212173
2.819,1.699214385007508
2.82,1.719852029462345
2.821,1.7379099683603272
2.822,1.7211418822407722
2.823,1.7430693794740364
2.824,1.7391998211387545
2.825,1.7263012933544815
2.826,1.7237215877976269
2.827,1.706953501678072
2.828,1.6966346794506535
2.829,1.70308394334279
2.83,1.6811564461095259
2.831,1.6747071822173893
2.832,1.673417329438962
2.833,1.6618086544331163
2.834,1.6656782127683982
2.835,1.6798665933310986
2.836,1.6682579183252528
2.837,1.70308394334279
2.838,1.70308394334279
2.839,1.7056636488996446
2.84,1.7340404100250453
2.841,1.7314607044681907
2.842,1.7404896739171818
2.843,1.7391998211387545
2.844,1.7482287905877456
2.845,1.7340404100250453
2.846,1.7314607044681907
2.847,1.7108230600133538
2.848,1.7121129127917811
2.849,1.7108230600133538
2.85,1.677286887774244
2.851,1.6824462988879532
2.852,1.677286887774244
2.853,1.6708376238821074
2.854,1.6721274766605347
2.855,1.6824462988879532
2.856,1.6876057100016624
2.857,1.7134027655702084
2.858,1.7082433544564992
2.859,1.7172723239054903
2.86,1.7508084961446002
2.861,1.7353302628034726
2.862,1.7533882017014548
2.863,1.749518643366173
2.864,1.7533882017014548
2.865,1.7443592322524637
2.866,1.7379099683603272
2.867,1.7095332072349265
2.868,1.719852029462345
2.869,1.706953501678072
2.87,1.6837361516663805
2.871,1.6914752683369443
2.872,1.6837361516663805
2.873,1.6721274766605347
2.874,1.6850260044448078
2.875,1.686315857223235
2.876,1.699214385007508
2.8770000000000002,1.7185621766839176
2.878,1.7082433544564992
2.879,1.732750557246618
2.88,1.7482287905877456
2.8810000000000002,1.7404896739171818
2.882,1.7533882017014548
2.883,1.7598374655935913
2.884,1.7520983489230275
2.8850000000000002,1.7508084961446002
2.886,1.732750557246618
2.887,1.7250114405760542
2.888,1.7275911461329088
2.8890000000000002,1.6940549738937989
2.89,1.6953448266722262
2.891,1.6888955627800897
2.892,1.6759970349958166
2.8930000000000002,1.6785767405526713
2.894,1.6888955627800897
2.895,1.686315857223235
2.896,1.706953501678072
2.8970000000000002,1.7056636488996446
2.898,1.7134027655702084
2.899,1.7443592322524637
2.9,1.7353302628034726
2.9010000000000002,1.7559679072583094
2.902,1.7572577600367367
2.903,1.758547612815164
2.904,1.7546780544798821
2.9050000000000002,1.745649085030891
2.906,1.7237215877976269
2.907,1.732750557246618
2.908,1.7172723239054903
2.9090000000000003,1.6940549738937989
2.91,1.6979245322290808
2.911,1.677286887774244
2.912,1.6747071822173893
2.9130000000000003,1.6824462988879532
2.914,1.6824462988879532
2.915,1.690185415558517
2.916,1.7134027655702084
2.9170000000000003,1.6966346794506535
2.918,1.728880998911336
2.919,1.7391998211387545
2.92,1.7353302628034726
2.9210000000000003,1.762417171150446
2.922,1.7611273183720186
2.923,1.7520983489230275
2.924,1.7482287905877456
2.9250000000000003,1.7469389378093183
2.926,1.728880998911336
2.927,1.7340404100250453
2.928,1.7017940905643627
2.9290000000000003,1.7005042377859354
2.93,1.6966346794506535
2.931,1.6708376238821074
2.932,1.673417329438962
2.9330000000000003,1.6876057100016624
2.934,1.6785767405526713
2.935,1.690185415558517
2.936,1.70308394334279
2.9370000000000003,1.7095332072349265
2.938,1.732750557246618
2.939,1.7250114405760542
2.94,1.7469389378093183
2.9410000000000003,1.7611273183720186
2.942,1.7508084961446002
2.943,1.7520983489230275
2.944,1.749518643366173
2.945,1.741779526695609
2.946,1.7379099683603272
2.947,1.719852029462345
2.948,1.7017940905643627
2.949,1.7082433544564992
2.95,1.6837361516663805
2.951,1.6811564461095259
2.952,1.677286887774244
2.953,1.6798665933310986
2.954,1.690185415558517
2.955,1.6966346794506535
2.956,1.6966346794506535
2.957,1.7237215877976269
2.958,1.7275911461329088
2.959,1.7314607044681907
2.96,1.7559679072583094
2.961,1.7598374655935913
2.962,1.7546780544798821
2.963,1.7520983489230275
2.964,1.7469389378093183
2.965,1.741779526695609
2.966,1.7366201155818999
2.967,1.706953501678072
2.968,1.7146926183486357
2.969,1.7082433544564992
2.97,1.6759970349958166
2.971,1.6759970349958166
2.972,1.6888955627800897
2.973,1.677286887774244
2.974,1.686315857223235
2.975,1.6914752683369443
2.976,1.7043737961212173
2.977,1.728880998911336
2.978,1.7172723239054903
2.979,1.7404896739171818
2.98,1.7598374655935913
2.981,1.7508084961446002
2.982,1.7572577600367367
2.983,1.7572577600367367
2.984,1.745649085030891
2.985,1.7391998211387545
2.986,1.7301708516897634
2.987,1.7146926183486357
2.988,1.719852029462345
2.989,1.6888955627800897
2.99,1.686315857223235
2.991,1.6824462988879532
2.992,1.6708376238821074
2.993,1.6811564461095259
2.994,1.690185415558517
2.995,1.6876057100016624
2.996,1.715982471127063
2.997,1.7172723239054903
2.998,1.7224317350191996
2.999,1.749518643366173
3.0,1.7404896739171818
3.001,1.7559679072583094
3.0020000000000002,1.758547612815164
3.003,1.7508084961446002
3.004,1.745649085030891
3.005,1.7469389378093183
3.0060000000000002,1.7134027655702084
3.007,1.7250114405760542
3.008,1.70308394334279
3.009,1.6824462988879532
3.0100000000000002,1.699214385007508
3.011,1.6824462988879532
3.012,1.6785767405526713
3.013,1.6824462988879532
3.0140000000000002,1.690185415558517
3.015,1.7017940905643627
3.016,1.7185621766839176
3.017,1.706953501678072
3.0180000000000002,1.7353302628034726
3.019,1.7520983489230275
3.02,1.7366201155818999
3.021,1.7482287905877456
3.0220000000000002,1.7572577600367367
3.023,1.7482287905877456
3.024,1.745649085030891
3.025,1.7275911461329088
3.0260000000000002,1.7185621766839176
3.027,1.7263012933544815
3.028,1.6953448266722262
3.029,1.6914752683369443
3.0300000000000002,1.6953448266722262
3.031,1.673417329438962
3.032,1.677286887774244
3.033,1.6914752683369443
3.0340000000000003,1.6850260044448078
3.035,1.7082433544564992
3.036,1.7095332072349265
3.037,1.7172723239054903
3.0380000000000003,1.7430693794740364
3.039,1.7366201155818999
3.04,1.7533882017014548
3.041,1.7546780544798821
3.0420000000000003,1.7546780544798821
3.043,1.7482287905877456
3.044,1.7469389378093183
3.045,1.7211418822407722
3.0460000000000003,1.7314607044681907
3.047,1.7134027655702084
3.048,1.6914752683369443
3.049,1.6979245322290808
3.0500000000000003,1.6811564461095259
3.051,1.6798665933310986
3.052,1.6811564461095259
3.053,1.6837361516663805
3.0540000000000003,1.6927651211153716
3.055,1.7108230600133538
3.056,1.7095332072349265
3.057,1.728880998911336
3.0580000000000003,1.7379099683603272
3.059,1.7353302628034726
3.06,1.762417171150446
3.061,1.7546780544798821
3.0620000000000003,1.7520983489230275
3.063,1.7482287905877456
3.064,1.7443592322524637
3.065,1.7314607044681907
3.0660000000000003,1.7301708516897634
3.067,1.699214385007508
3.068,1.699214385007508
3.069,1.6927651211153716
3.0700000000000003,1.6682579183252528
3.071,1.6759970349958166
3.072,1.6850260044448078
3.073,1.6837361516663805
3.074,1.6888955627800897
3.075,1.6953448266722262
3.076,1.7095332072349265
3.077,1.7314607044681907
3.078,1.7237215877976269
3.079,1.7482287905877456
3.08,1.762417171150446
3.081,1.7520983489230275
3.082,1.7508084961446002
3.083,1.7508084961446002
3.084,1.7379099683603272
3.085,1.7366201155818999
3.086,1.715982471127063
3.087,1.7005042377859354
3.088,1.7108230600133538
3.089,1.6747071822173893
3.09,1.6798665933310986
3.091,1.6811564461095259
3.092,1.6798665933310986
3.093,1.686315857223235
3.094,1.7005042377859354
3.095,1.6953448266722262
3.096,1.7263012933544815
3.097,1.719852029462345
3.098,1.7301708516897634
3.099,1.7598374655935913
3.1,1.7508084961446002
3.101,1.7520983489230275
3.102,1.7533882017014548
3.103,1.7469389378093183
3.104,1.7366201155818999
3.105,1.7301708516897634
3.106,1.7043737961212173
3.107,1.7172723239054903
3.108,1.7056636488996446
3.109,1.6811564461095259
3.11,1.6811564461095259
3.111,1.6850260044448078
3.112,1.6811564461095259
3.113,1.686315857223235
3.114,1.6850260044448078
3.115,1.7134027655702084
3.116,1.7275911461329088
3.117,1.7134027655702084
3.118,1.7430693794740364
3.119,1.7546780544798821
3.12,1.7546780544798821
3.121,1.7546780544798821
3.122,1.7546780544798821
3.123,1.741779526695609
3.124,1.7340404100250453
3.125,1.7172723239054903
3.126,1.7134027655702084
3.1270000000000002,1.7185621766839176
3.128,1.6824462988879532
3.129,1.690185415558517
3.13,1.686315857223235
3.1310000000000002,1.6695477711036801
3.132,1.677286887774244
3.133,1.6940549738937989
3.134,1.6888955627800897
3.1350000000000002,1.7185621766839176
3.136,1.706953501678072
3.137,1.732750557246618
3.138,1.7520983489230275
3.1390000000000002,1.7379099683603272
3.14,1.7533882017014548
3.141,1.7572577600367367
3.142,1.7520983489230275
3.1430000000000002,1.7443592322524637
3.144,1.7391998211387545
3.145,1.7146926183486357
3.146,1.7237215877976269
3.1470000000000002,1.6979245322290808
3.148,1.6837361516663805
3.149,1.6940549738937989
3.15,1.6811564461095259
3.1510000000000002,1.6811564461095259
3.152,1.6914752683369443
3.153,1.6888955627800897
3.154,1.7043737961212173
3.1550000000000002,1.7108230600133538
3.156,1.7095332072349265
3.157,1.7353302628034726
3.158,1.7482287905877456
3.1590000000000003,1.7430693794740364
3.16,1.7533882017014548
3.161,1.7572577600367367
3.162,1.7469389378093183
3.1630000000000003,1.7443592322524637
3.164,1.719852029462345
3.165,1.7250114405760542
3.166,1.7237215877976269
3.1670000000000003,1.6888955627800897
3.168,1.6927651211153716
3.169,1.690185415558517
3.17,1.6798665933310986
3.1710000000000003,1.6759970349958166
3.172,1.6888955627800897
3.173,1.6888955627800897
3.174,1.7146926183486357
3.1750000000000003,1.7108230600133538
3.176,1.7224317350191996
3.177,1.7469389378093183
3.178,1.7340404100250453
3.1790000000000003,1.7520983489230275
3.18,1.7598374655935913
3.181,1.7559679072583094
3.182,1.7520983489230275
3.1830000000000003,1.745649085030891
3.184,1.7185621766839176
3.185,1.732750557246618
3.186,1.7056636488996446
3.1870000000000003,1.6953448266722262
3.188,1.7017940905643627
3.189,1.6785767405526713
3.19,1.6837361516663805
3.1910000000000003,1.686315857223235
3.192,1.6798665933310986
3.193,1.6953448266722262
3.194,1.7082433544564992
3.1950000000000003,1.7056636488996446
3.196,1.7314607044681907
3.197,1.7391998211387545
3.198,1.7404896739171818
3.1990000000000003,1.7611273183720186
3.2,1.7572577600367367
3.201,1.745649085030891
3.202,1.7469389378093183
3.203,1.7404896739171818
3.204,1.7275911461329088
3.205,1.7314607044681907
3.206,1.6927651211153716
3.207,1.6940549738937989
3.208,1.699214385007508
3.209,1.6656782127683982
3.21,1.6747071822173893
3.211,1.6850260044448078
3.212,1.6824462988879532
3.213,1.6927651211153716
3.214,1.6979245322290808
3.215,1.7082433544564992
3.216,1.732750557246618
3.217,1.7275911461329088
3.218,1.7469389378093183
3.219,1.7649968767073005
3.22,1.7559679072583094
3.221,1.7508084961446002
3.222,1.749518643366173
3.223,1.7366201155818999
3.224,1.7353302628034726
3.225,1.719852029462345
3.226,1.699214385007508
3.227,1.7017940905643627
3.228,1.6798665933310986
3.229,1.6785767405526713
3.23,1.6850260044448078
3.231,1.6798665933310986
3.232,1.686315857223235
3.233,1.70308394334279
3.234,1.6966346794506535
3.235,1.7172723239054903
3.236,1.7263012933544815
3.237,1.7314607044681907
3.238,1.7546780544798821
3.239,1.7598374655935913
3.24,1.7508084961446002
3.241,1.7533882017014548
3.242,1.745649085030891
3.243,1.7366201155818999
3.244,1.7353302628034726
3.245,1.7043737961212173
3.246,1.7108230600133538
3.247,1.7005042377859354
3.248,1.6747071822173893
3.249,1.6759970349958166
3.25,1.6837361516663805
3.251,1.677286887774244
3.2520000000000002,1.6850260044448078
3.253,1.686315857223235
3.254,1.7108230600133538
3.255,1.7314607044681907
3.2560000000000002,1.7095332072349265
3.257,1.741779526695609
3.258,1.7559679072583094
3.259,1.7508084961446002
3.2600000000000002,1.7533882017014548
3.261,1.7533882017014548
3.262,1.7430693794740364
3.263,1.745649085030891
3.2640000000000002,1.7211418822407722
3.265,1.7082433544564992
3.266,1.7185621766839176
3.267,1.6837361516663805
3.2680000000000002,1.6837361516663805
3.269,1.686315857223235
3.27,1.6747071822173893
3.271,1.6837361516663805
3.2720000000000002,1.6940549738937989
3.273,1.6888955627800897
3.274,1.7185621766839176
3.275,1.7172723239054903
3.2760000000000002,1.7250114405760542
3.277,1.7546780544798821
3.278,1.7443592322524637
3.279,1.7508084961446002
3.2800000000000002,1.7572577600367367
3.281,1.7546780544798821
3.282,1.7430693794740364
3.283,1.7430693794740364
3.2840000000000003,1.7134027655702084
3.285,1.7211418822407722
3.286,1.7095332072349265
3.287,1.6837361516663805
3.2880000000000003,1.690185415558517
3.289,1.686315857223235
3.29,1.677286887774244
3.291,1.6824462988879532
3.2920000000000003,1.6940549738937989
3.293,1.7043737961212173
3.294,1.7237215877976269
3.295,1.7056636488996446
3.2960000000000003,1.7391998211387545
3.297,1.7508084961446002
3.298,1.7404896739171818
3.299,1.7546780544798821
3.3000000000000003,1.758547612815164
3.301,1.7469389378093183
3.302,1.7430693794740364
3.303,1.7275911461329088
3.3040000000000003,1.7237215877976269
3.305,1.7275911461329088
3.306,1.6914752683369443
3.307,1.6953448266722262
3.3080000000000003,1.690185415558517
3.309,1.6721274766605347
3.31,1.6785767405526713
3.311,1.6888955627800897
3.3120000000000003,1.6888955627800897
3.313,1.7095332072349265
3.314,1.7185621766839176
3.315,1.7108230600133538
3.3160000000000003,1.7469389378093183
3.317,1.7391998211387545
3.318,1.749518643366173
3.319,1.758547612815164
3.3200000000000003,1.7520983489230275
3.321,1.7508084961446002
3.322,1.7443592322524637
3.323,1.715982471127063
3.3240000000000003,1.7237215877976269
3.325,1.7146926183486357
3.326,1.686315857223235
3.327,1.6953448266722262
3.3280000000000003,1.677286887774244
3.329,1.6759970349958166
3.33,1.6811564461095259
3.331,1.6888955627800897
3.332,1.6927651211153716
3.333,1.7134027655702084
3.334,1.70308394334279
3.335,1.7301708516897634
3.336,1.745649085030891
3.337,1.7391998211387545
3.338,1.7572577600367367
3.339,1.7598374655935913
3.34,1.7520983489230275
3.341,1.7520983489230275
3.342,1.7430693794740364
3.343,1.7263012933544815
3.344,1.728880998911336
3.345,1.6979245322290808
3.346,1.6953448266722262
3.347,1.6966346794506535
3.348,1.6695477711036801
3.349,1.6747071822173893
3.35,1.6850260044448078
3.351,1.6850260044448078
3.352,1.6927651211153716
3.353,1.70308394334279
3.354,1.706953501678072
3.355,1.7366201155818999
3.356,1.7250114405760542
3.357,1.7443592322524637
3.358,1.7611273183720186
3.359,1.7508084961446002
3.36,1.7533882017014548
3.361,1.749518643366173
3.362,1.7366201155818999
3.363,1.7314607044681907
3.364,1.7211418822407722
3.365,1.6927651211153716
3.366,1.699214385007508
3.367,1.686315857223235
3.368,1.6747071822173893
3.369,1.6824462988879532
3.37,1.6837361516663805
3.371,1.6850260044448078
3.372,1.706953501678072
3.373,1.6927651211153716
3.374,1.7134027655702084
3.375,1.7353302628034726
3.376,1.7301708516897634
3.3770000000000002,1.749518643366173
3.378,1.749518643366173
3.379,1.7559679072583094
3.38,1.7520983489230275
3.3810000000000002,1.7469389378093183
3.382,1.7340404100250453
3.383,1.7314607044681907
3.384,1.719852029462345
3.3850000000000002,1.6966346794506535
3.386,1.6914752683369443
3.387,1.6837361516663805
3.388,1.6759970349958166
3.3890000000000002,1.6759970349958166
3.39,1.686315857223235
3.391,1.6824462988879532
3.392,1.7082433544564992
3.3930000000000002,1.6966346794506535
3.394,1.7185621766839176
3.395,1.7379099683603272
3.396,1.7314607044681907
3.3970000000000002,1.7508084961446002
3.398,1.7508084961446002
3.399,1.7508084961446002
3.4,1.7482287905877456
3.4010000000000002,1.7430693794740364
3.402,1.7237215877976269
3.403,1.728880998911336
3.404,1.7134027655702084
3.4050000000000002,1.6927651211153716
3.406,1.699214385007508
3.407,1.677286887774244
3.408,1.6759970349958166
3.4090000000000003,1.6785767405526713
3.41,1.6837361516663805
3.411,1.6888955627800897
3.412,1.7121129127917811
3.4130000000000003,1.6966346794506535
3.414,1.7237215877976269
3.415,1.7353302628034726
3.416,1.7314607044681907
3.4170000000000003,1.7520983489230275
3.418,1.7533882017014548
3.419,1.7546780544798821
3.42,1.7469389378093183
3.4210000000000003,1.7430693794740364
3.422,1.7237215877976269
3.423,1.7340404100250453
3.424,1.7082433544564992
3.4250000000000003,1.699214385007508
3.426,1.699214385007508
3.427,1.677286887774244
3.428,1.6747071822173893
3.4290000000000003,1.6837361516663805
3.43,1.6824462988879532
3.431,1.6940549738937989
3.432,1.7121129127917811
3.4330000000000003,1.6979245322290808
3.434,1.7224317350191996
3.435,1.7391998211387545
3.436,1.7314607044681907
3.4370000000000003,1.7572577600367367
3.438,1.758547612815164
3.439,1.7482287905877456
3.44,1.749518643366173
3.4410000000000003,1.7430693794740364
3.442,1.7275911461329088
3.443,1.7211418822407722
3.444,1.7017940905643627
3.4450000000000003,1.6979245322290808
3.446,1.6953448266722262
3.447,1.6669680655468255
3.448,1.673417329438962
3.4490000000000003,1.6876057100016624
3.45,1.6759970349958166
3.451,1.6888955627800897
3.452,1.7043737961212173
3.4530000000000003,1.70308394334279
3.454,1.7301708516897634
3.455,1.732750557246618
3.456,1.7391998211387545
3.457,1.762417171150446
3.458,1.758547612815164
3.459,1.7520983489230275
3.46,1.7482287905877456
3.461,1.7404896739171818
3.462,1.7301708516897634
3.463,1.7250114405760542
3.464,1.7005042377859354
3.465,1.6979245322290808
3.466,1.6876057100016624
3.467,1.6759970349958166
3.468,1.6721274766605347
3.469,1.686315857223235
3.47,1.6785767405526713
3.471,1.6876057100016624
3.472,1.6927651211153716
3.473,1.7185621766839176
3.474,1.732750557246618
3.475,1.719852029462345
3.476,1.749518643366173
3.477,1.7572577600367367
3.478,1.7559679072583094
3.479,1.7508084961446002
3.48,1.7508084961446002
3.481,1.7340404100250453
3.482,1.7366201155818999
3.483,1.7095332072349265
3.484,1.706953501678072
3.485,1.7095332072349265
3.486,1.6747071822173893
3.487,1.6837361516663805
3.488,1.6824462988879532
3.489,1.6798665933310986
3.49,1.686315857223235
3.491,1.70308394334279
3.492,1.699214385007508
3.493,1.7275911461329088
3.494,1.7263012933544815
3.495,1.7340404100250453
3.496,1.7662867294857278
3.497,1.7572577600367367
3.498,1.7559679072583094
3.499,1.7520983489230275
3.5,1.7546780544798821
3.501,1.741779526695609
3.5020000000000002,1.745649085030891
3.503,1.7172723239054903
3.504,1.7185621766839176
3.505,1.7121129127917811
3.5060000000000002,1.6785767405526713
3.507,1.6837361516663805
3.508,1.6953448266722262
3.509,1.6837361516663805
3.5100000000000002,1.6953448266722262
3.511,1.7082433544564992
3.512,1.7095332072349265
3.513,1.732750557246618
3.5140000000000002,1.7366201155818999
3.515,1.7404896739171818
3.516,1.775315698934719
3.517,1.7649968767073005
3.5180000000000002,1.7649968767073005
3.519,1.7637070239288732
3.52,1.7598374655935913
3.521,1.7520983489230275
3.5220000000000002,1.745649085030891
3.523,1.719852029462345
3.524,1.7237215877976269
3.525,1.7082433544564992
3.5260000000000002,1.6850260044448078
3.527,1.6876057100016624
3.528,1.7005042377859354
3.529,1.6927651211153716
3.5300000000000002,1.70308394334279
3.531,1.7095332072349265
3.532,1.719852029462345
3.533,1.7404896739171818
3.5340000000000003,1.7314607044681907
3.535,1.7611273183720186
3.536,1.775315698934719
3.537,1.7688664350425825
3.5380000000000003,1.7701562878210098
3.539,1.771446140599437
3.54,1.7598374655935913
3.541,1.7598374655935913
3.5420000000000003,1.7391998211387545
3.543,1.728880998911336
3.544,1.7353302628034726
3.545,1.6979245322290808
3.5460000000000003,1.7005042377859354
3.547,1.7017940905643627
3.548,1.6966346794506535
3.549,1.70308394334279
3.5500000000000003,1.7095332072349265
3.551,1.7121129127917811
3.552,1.7340404100250453
3.553,1.7469389378093183
3.5540000000000003,1.7391998211387545
3.555,1.7727359933778644
3.556,1.7727359933778644
3.557,1.771446140599437
3.5580000000000003,1.7740258461562917
3.559,1.7740258461562917
3.56,1.7611273183720186
3.561,1.7637070239288732
3.5620000000000003,1.7314607044681907
3.563,1.7353302628034726
3.564,1.7353302628034726
3.565,1.6979245322290808
3.5660000000000003,1.7146926183486357
3.567,1.706953501678072
3.568,1.7005042377859354
3.569,1.70308394334279
3.5700000000000003,1.7185621766839176
3.571,1.715982471127063
3.572,1.7508084961446002
3.573,1.7391998211387545
3.5740000000000003,1.7508084961446002
3.575,1.7804751100484282
3.576,1.7662867294857278
3.577,1.775315698934719
3.5780000000000003,1.7817649628268555
3.579,1.7766055517131463
3.58,1.7649968767073005
3.581,1.7649968767073005
3.5820000000000003,1.7366201155818999
3.583,1.7404896739171818
3.584,1.7250114405760542
3.585,1.70308394334279
3.586,1.7134027655702084
3.587,1.7056636488996446
3.588,1.7043737961212173
3.589,1.7108230600133538
3.59,1.7211418822407722
3.591,1.732750557246618
3.592,1.749518643366173
3.593,1.732750557246618
3.594,1.7675765822641551
3.595,1.7804751100484282
3.596,1.7688664350425825
3.597,1.7791852572700009
3.598,1.7830548156052828
3.599,1.7688664350425825
3.6,1.7701562878210098
3.601,1.7508084961446002
3.602,1.745649085030891
3.603,1.749518643366173
3.604,1.7095332072349265
3.605,1.7185621766839176
3.606,1.719852029462345
3.607,1.706953501678072
3.608,1.7095332072349265
3.609,1.7172723239054903
3.61,1.719852029462345
3.611,1.7443592322524637
3.612,1.745649085030891
3.613,1.7469389378093183
3.614,1.7830548156052828
3.615,1.7727359933778644
3.616,1.775315698934719
3.617,1.7907939322758466
3.618,1.78434466838371
3.619,1.7791852572700009
3.62,1.775315698934719
3.621,1.7469389378093183
3.622,1.749518643366173
3.623,1.745649085030891
3.624,1.7146926183486357
3.625,1.7224317350191996
3.626,1.7172723239054903
3.6270000000000002,1.7108230600133538
3.628,1.7121129127917811
3.629,1.7224317350191996
3.63,1.7250114405760542
3.6310000000000002,1.7533882017014548
3.632,1.7366201155818999
3.633,1.7649968767073005
3.634,1.7804751100484282
3.6350000000000002,1.7688664350425825
3.636,1.7830548156052828
3.637,1.788214226718992
3.638,1.7817649628268555
3.6390000000000002,1.7791852572700009
3.64,1.775315698934719
3.641,1.7533882017014548
3.642,1.7649968767073005
3.6430000000000002,1.728880998911336
3.644,1.7275911461329088
3.645,1.7275911461329088
3.646,1.7095332072349265
3.6470000000000002,1.7095332072349265
3.648,1.7211418822407722
3.649,1.7146926183486357
3.65,1.7430693794740364
3.6510000000000002,1.7391998211387545
3.652,1.741779526695609
3.653,1.7727359933778644
3.654,1.7688664350425825
3.6550000000000002,1.7830548156052828
3.656,1.7895040794974193
3.657,1.78434466838371
3.658,1.7856345211621374
3.6590000000000003,1.7830548156052828
3.66,1.758547612815164
3.661,1.7637070239288732
3.662,1.7546780544798821
3.6630000000000003,1.7301708516897634
3.664,1.7353302628034726
3.665,1.719852029462345
3.666,1.7108230600133538
3.6670000000000003,1.7134027655702084
3.668,1.7211418822407722
3.669,1.7250114405760542
3.67,1.7469389378093183
3.6710000000000003,1.7275911461329088
3.672,1.7572577600367367
3.673,1.7740258461562917
3.674,1.771446140599437
3.6750000000000003,1.7933736378327012
3.676,1.7959533433895558
3.677,1.7895040794974193
3.678,1.78434466838371
3.6790000000000003,1.78434466838371
3.68,1.7662867294857278
3.681,1.7675765822641551
3.682,1.7366201155818999
3.6830000000000003,1.7391998211387545
3.684,1.7353302628034726
3.685,1.706953501678072
3.686,1.7108230600133538
3.6870000000000003,1.7237215877976269
3.688,1.7172723239054903
3.689,1.7263012933544815
3.69,1.7353302628034726
3.6910000000000003,1.7443592322524637
3.692,1.7727359933778644
3.693,1.7688664350425825
3.694,1.7817649628268555
3.6950000000000003,1.8036924600601196
3.696,1.792083785054274
3.697,1.792083785054274
3.698,1.788214226718992
3.6990000000000003,1.7791852572700009
3.7,1.7740258461562917
3.701,1.7675765822641551
3.702,1.7404896739171818
3.7030000000000003,1.745649085030891
3.704,1.7275911461329088
3.705,1.715982471127063
3.706,1.719852029462345
3.7070000000000003,1.7224317350191996
3.708,1.7224317350191996
3.709,1.7314607044681907
3.71,1.7263012933544815
3.7110000000000003,1.7508084961446002
3.712,1.775315698934719
3.713,1.7637070239288732
3.714,1.7856345211621374
3.715,1.7972431961679831
3.716,1.7933736378327012
3.717,1.7933736378327012
3.718,1.7869243739405647
3.719,1.7817649628268555
3.72,1.7766055517131463
3.721,1.758547612815164
3.722,1.7482287905877456
3.723,1.7469389378093183
3.724,1.7211418822407722
3.725,1.7237215877976269
3.726,1.7211418822407722
3.727,1.719852029462345
3.728,1.7211418822407722
3.729,1.7353302628034726
3.73,1.7353302628034726
3.731,1.7611273183720186
3.732,1.7740258461562917
3.733,1.7649968767073005
3.734,1.7933736378327012
3.735,1.7998229017248377
3.736,1.7933736378327012
3.737,1.7946634906111285
3.738,1.7959533433895558
3.739,1.775315698934719
3.74,1.7804751100484282
3.741,1.7533882017014548
3.742,1.749518643366173
3.743,1.7508084961446002
3.744,1.7224317350191996
3.745,1.7224317350191996
3.746,1.7237215877976269
3.747,1.7250114405760542
3.748,1.7314607044681907
3.749,1.7482287905877456
3.75,1.7391998211387545
3.751,1.758547612815164
3.7520000000000002,1.7701562878210098
3.753,1.7675765822641551
3.754,1.7946634906111285
3.755,1.7972431961679831
3.7560000000000002,1.792083785054274
3.757,1.792083785054274
3.758,1.7895040794974193
3.759,1.7791852572700009
3.7600000000000002,1.7804751100484282
3.761,1.749518643366173
3.762,1.7508084961446002
3.763,1.7482287905877456
3.7640000000000002,1.7172723239054903
3.765,1.7237215877976269
3.766,1.7237215877976269
3.767,1.719852029462345
3.7680000000000002,1.7237215877976269
3.769,1.7443592322524637
3.77,1.7404896739171818
3.771,1.7649968767073005
3.7720000000000002,1.7701562878210098
3.773,1.7688664350425825
3.774,1.801112754503265
3.775,1.8036924600601196
3.7760000000000002,1.7907939322758466
3.777,1.7946634906111285
3.778,1.788214226718992
3.779,1.7766055517131463
3.7800000000000002,1.775315698934719
3.781,1.7469389378093183
3.782,1.745649085030891
3.783,1.745649085030891
3.7840000000000003,1.7121129127917811
3.785,1.719852029462345
3.786,1.7250114405760542
3.787,1.715982471127063
3.7880000000000003,1.7301708516897634
3.789,1.7366201155818999
3.79,1.741779526695609
3.791,1.7701562878210098
3.7920000000000003,1.7662867294857278
3.793,1.7778954044915736
3.794,1.8036924600601196
3.795,1.7985330489464104
3.7960000000000003,1.7933736378327012
3.797,1.792083785054274
3.798,1.7856345211621374
3.799,1.7740258461562917
3.8000000000000003,1.7727359933778644
3.801,1.7469389378093183
3.802,1.7391998211387545
3.803,1.7366201155818999
3.8040000000000003,1.7146926183486357
3.805,1.715982471127063
3.806,1.7237215877976269
3.807,1.7211418822407722
3.8080000000000003,1.7301708516897634
3.809,1.7379099683603272
3.81,1.7508084961446002
3.811,1.7649968767073005
3.8120000000000003,1.7637070239288732
3.813,1.7791852572700009
3.814,1.8075620183954015
3.815,1.7985330489464104
3.8160000000000003,1.792083785054274
3.817,1.7933736378327012
3.818,1.78434466838371
3.819,1.771446140599437
3.8200000000000003,1.7740258461562917
3.821,1.7404896739171818
3.822,1.745649085030891
3.823,1.732750557246618
3.8240000000000003,1.7134027655702084
3.825,1.715982471127063
3.826,1.719852029462345
3.827,1.7224317350191996
3.8280000000000003,1.7301708516897634
3.829,1.7430693794740364
3.83,1.7430693794740364
3.831,1.7778954044915736
3.8320000000000003,1.7701562878210098
3.833,1.7856345211621374
3.834,1.8036924600601196
3.835,1.7998229017248377
3.8360000000000003,1.7946634906111285
3.837,1.788214226718992
3.838,1.7830548156052828
3.839,1.7727359933778644
3.84,1.7637070239288732
3.841,1.7391998211387545
3.842,1.7430693794740364
3.843,1.7340404100250453
3.844,1.7172723239054903
3.845,1.7172723239054903
3.846,1.728880998911336
3.847,1.7263012933544815
3.848,1.732750557246618
3.849,1.7379099683603272
3.85,1.758547612815164
3.851,1.775315698934719
3.852,1.7637070239288732
3.853,1.792083785054274
3.854,1.7998229017248377
3.855,1.7907939322758466
3.856,1.7933736378327012
3.857,1.7946634906111285
3.858,1.7791852572700009
3.859,1.7817649628268555
3.86,1.7546780544798821
3.861,1.7482287905877456
3.862,1.7520983489230275
3.863,1.715982471127063
3.864,1.7263012933544815
3.865,1.7250114405760542
3.866,1.7185621766839176
3.867,1.7237215877976269
3.868,1.741779526695609
3.869,1.7391998211387545
3.87,1.7649968767073005
3.871,1.7559679072583094
3.872,1.7740258461562917
3.873,1.7998229017248377
3.874,1.7907939322758466
3.875,1.8036924600601196
3.876,1.7933736378327012
3.8770000000000002,1.7856345211621374
3.878,1.7778954044915736
3.879,1.771446140599437
3.88,1.7469389378093183
3.8810000000000002,1.7559679072583094
3.882,1.7404896739171818
3.883,1.7211418822407722
3.884,1.719852029462345
3.8850000000000002,1.7211418822407722
3.886,1.7224317350191996
3.887,1.7275911461329088
3.888,1.7275911461329088
3.8890000000000002,1.7520983489230275
3.89,1.7662867294857278
3.891,1.7520983489230275
3.892,1.7830548156052828
3.8930000000000002,1.7972431961679831
3.894,1.792083785054274
3.895,1.792083785054274
3.896,1.7946634906111285
3.8970000000000002,1.78434466838371
3.898,1.7791852572700009
3.899,1.7662867294857278
3.9,1.7508084961446002
3.9010000000000002,1.7520983489230275
3.902,1.7353302628034726
3.903,1.719852029462345
3.904,1.7224317350191996
3.9050000000000002,1.7146926183486357
3.906,1.7250114405760542
3.907,1.7314607044681907
3.908,1.7263012933544815
3.9090000000000003,1.7559679072583094
3.91,1.7662867294857278
3.911,1.7598374655935913
3.912,1.7869243739405647
3.9130000000000003,1.7933736378327012
3.914,1.7946634906111285
3.915,1.7959533433895558
3.916,1.7985330489464104
3.9170000000000003,1.78434466838371
3.918,1.7895040794974193
3.919,1.7520983489230275
3.92,1.7611273183720186
3.9210000000000003,1.7546780544798821
3.922,1.719852029462345
3.923,1.7263012933544815
3.924,1.7263012933544815
3.9250000000000003,1.719852029462345
3.926,1.7211418822407722
3.927,1.732750557246618
3.928,1.7379099683603272
3.9290000000000003,1.7649968767073005
3.93,1.749518643366173
3.931,1.7727359933778644
3.932,1.7946634906111285
3.9330000000000003,1.7727359933778644
3.934,1.7972431961679831
3.935,1.7998229017248377
3.936,1.7907939322758466
3.9370000000000003,1.7856345211621374
3.938,1.771446140599437
3.939,1.749518643366173
3.94,1.7662867294857278
3.9410000000000003,1.7379099683603272
3.942,1.728880998911336
3.943,1.7391998211387545
3.944,1.715982471127063
3.9450000000000003,1.7172723239054903
3.946,1.7275911461329088
3.947,1.7250114405760542
3.948,1.749518643366173
3.9490000000000003,1.7533882017014548
3.95,1.749518643366173
3.951,1.7830548156052828
3.952,1.7791852572700009
3.9530000000000003,1.7895040794974193
3.954,1.7946634906111285
3.955,1.7972431961679831
3.956,1.7895040794974193
3.9570000000000003,1.78434466838371
3.958,1.758547612815164
3.959,1.7611273183720186
3.96,1.7533882017014548
3.9610000000000003,1.728880998911336
3.962,1.7366201155818999
3.963,1.715982471127063
3.964,1.7172723239054903
3.9650000000000003,1.719852029462345
3.966,1.7237215877976269
3.967,1.732750557246618
3.968,1.7533882017014548
3.969,1.7366201155818999
3.97,1.7701562878210098
3.971,1.7791852572700009
3.972,1.7766055517131463
3.973,1.804982312838547
3.974,1.7998229017248377
3.975,1.788214226718992
3.976,1.7869243739405647
3.977,1.78434466838371
3.978,1.7675765822641551
3.979,1.7688664350425825
3.98,1.7353302628034726
3.981,1.7379099683603272
3.982,1.7353302628034726
3.983,1.7108230600133538
3.984,1.7134027655702084
3.985,1.7237215877976269
3.986,1.7185621766839176
3.987,1.732750557246618
3.988,1.7340404100250453
3.989,1.7559679072583094
3.99,1.7740258461562917
3.991,1.7637070239288732
3.992,1.7933736378327012
3.993,1.7959533433895558
3.994,1.792083785054274
3.995,1.7895040794974193
3.996,1.788214226718992
3.997,1.7740258461562917
3.998,1.7778954044915736
3.999,1.745649085030891
4.0,1.745649085030891
4.001,1.7482287905877456
4.002,1.7056636488996446
4.003,1.7237215877976269
4.0040000000000004,1.7185621766839176
4.005,1.7134027655702084
4.006,1.7224317350191996
4.007,1.7340404100250453
4.008,1.7366201155818999
4.009,1.7688664350425825
4.01,1.7598374655935913
4.011,1.771446140599437
4.0120000000000005,1.7985330489464104
4.013,1.792083785054274
4.014,1.7933736378327012
4.015,1.7907939322758466
4.016,1.7869243739405647
4.017,1.7766055517131463
4.018,1.775315698934719
4.019,1.7430693794740364
4.0200000000000005,1.749518643366173
4.021,1.741779526695609
4.022,1.7146926183486357
4.023,1.7211418822407722
4.024,1.7275911461329088
4.025,1.7211418822407722
4.026,1.7275911461329088
4.027,1.7250114405760542
4.0280000000000005,1.7508084961446002
4.029,1.7662867294857278
4.03,1.7598374655935913
4.031,1.788214226718992
4.032,1.7972431961679831
4.033,1.7907939322758466
4.034,1.7946634906111285
4.035,1.7985330489464104
4.0360000000000005,1.78434466838371
4.037,1.7856345211621374
4.038,1.762417171150446
4.039,1.7572577600367367
4.04,1.7598374655935913
4.041,1.7211418822407722
4.042,1.7340404100250453
4.043,1.7314607044681907
4.0440000000000005,1.7172723239054903
4.045,1.7275911461329088
4.046,1.7379099683603272
4.047,1.7340404100250453
4.048,1.7688664350425825
4.049,1.7598374655935913
4.05,1.7649968767073005
4.051,1.7985330489464104
4.0520000000000005,1.78434466838371
4.053,1.7959533433895558
4.054,1.801112754503265
4.055,1.7933736378327012
4.056,1.7895040794974193
4.057,1.78434466838371
4.058,1.7546780544798821
4.059,1.7662867294857278
4.0600000000000005,1.7482287905877456
4.061,1.7250114405760542
4.062,1.7366201155818999
4.063,1.728880998911336
4.064,1.7211418822407722
4.065,1.728880998911336
4.066,1.732750557246618
4.067,1.7482287905877456
4.0680000000000005,1.7637070239288732
4.069,1.7546780544798821
4.07,1.78434466838371
4.071,1.7972431961679831
4.072,1.7895040794974193
4.073,1.801112754503265
4.074,1.7998229017248377
4.075,1.7933736378327012
4.0760000000000005,1.792083785054274
4.077,1.771446140599437
4.078,1.7688664350425825
4.079,1.7688664350425825
4.08,1.7340404100250453
4.081,1.7404896739171818
4.082,1.7353302628034726
4.083,1.7185621766839176
4.0840000000000005,1.7237215877976269
4.085,1.7391998211387545
4.086,1.7353302628034726
4.087,1.762417171150446
4.088,1.7443592322524637
4.089,1.7662867294857278
4.09,1.7985330489464104
4.091,1.7817649628268555
4.0920000000000005,1.7998229017248377
4.093,1.8036924600601196
4.094,1.7959533433895558
4.095,1.7985330489464104
4.096,1.7907939322758466
4.097,1.7649968767073005
4.098,1.7856345211621374
4.099,1.7546780544798821
4.1,1.7340404100250453
4.101,1.745649085030891
4.102,1.7172723239054903
4.103,1.7250114405760542
4.104,1.7340404100250453
4.105,1.728880998911336
4.106,1.7391998211387545
4.107,1.7598374655935913
4.108,1.7572577600367367
4.109,1.771446140599437
4.11,1.7817649628268555
4.111,1.7869243739405647
4.112,1.8114315767306834
4.113,1.8036924600601196
4.114,1.8024026072816923
4.115,1.7985330489464104
4.116,1.7907939322758466
4.117,1.7727359933778644
4.118,1.7727359933778644
4.119,1.7391998211387545
4.12,1.741779526695609
4.121,1.7366201155818999
4.122,1.7185621766839176
4.123,1.7250114405760542
4.124,1.7353302628034726
4.125,1.728880998911336
4.126,1.7391998211387545
4.127,1.7443592322524637
4.128,1.7559679072583094
4.1290000000000004,1.7830548156052828
4.13,1.7727359933778644
4.131,1.8024026072816923
4.132,1.8191706934012473
4.133,1.801112754503265
4.134,1.7972431961679831
4.135,1.801112754503265
4.136,1.7830548156052828
4.1370000000000005,1.78434466838371
4.138,1.7611273183720186
4.139,1.7430693794740364
4.14,1.7533882017014548
4.141,1.7250114405760542
4.142,1.7263012933544815
4.143,1.7340404100250453
4.144,1.7250114405760542
4.1450000000000005,1.7340404100250453
4.146,1.7520983489230275
4.147,1.7443592322524637
4.148,1.7675765822641551
4.149,1.775315698934719
4.15,1.7766055517131463
4.151,1.804982312838547
4.152,1.8088518711738288
4.1530000000000005,1.7959533433895558
4.154,1.8024026072816923
4.155,1.7959533433895558
4.156,1.7817649628268555
4.157,1.7791852572700009
4.158,1.749518643366173
4.159,1.7533882017014548
4.16,1.7443592322524637
4.1610000000000005,1.719852029462345
4.162,1.7224317350191996
4.163,1.7314607044681907
4.164,1.7263012933544815
4.165,1.7314607044681907
4.166,1.7379099683603272
4.167,1.7520983489230275
4.168,1.7778954044915736
4.1690000000000005,1.762417171150446
4.17,1.7946634906111285
4.171,1.8024026072816923
4.172,1.7985330489464104
4.173,1.801112754503265
4.174,1.7985330489464104
4.175,1.7856345211621374
4.176,1.792083785054274
4.1770000000000005,1.7675765822641551
4.178,1.7533882017014548
4.179,1.7611273183720186
4.18,1.7250114405760542
4.181,1.7301708516897634
4.182,1.7314607044681907
4.183,1.7224317350191996
4.184,1.7275911461329088
4.1850000000000005,1.7353302628034726
4.186,1.7340404100250453
4.187,1.762417171150446
4.188,1.7701562878210098
4.189,1.7688664350425825
4.19,1.7972431961679831
4.191,1.7895040794974193
4.192,1.7972431961679831
4.1930000000000005,1.7972431961679831
4.194,1.7972431961679831
4.195,1.7895040794974193
4.196,1.78434466838371
4.197,1.7559679072583094
4.198,1.7611273183720186
4.199,1.749518643366173
4.2,1.7263012933544815
4.2010000000000005,1.728880998911336
4.202,1.7263012933544815
4.203,1.7237215877976269
4.204,1.7275911461329088
4.205,1.7430693794740364
4.206,1.7430693794740364
4.207,1.7688664350425825
4.208,1.7611273183720186
4.2090000000000005,1.7766055517131463
4.21,1.8024026072816923
4.211,1.78434466838371
4.212,1.8024026072816923
4.213,1.8024026072816923
4.214,1.7959533433895558
4.215,1.7869243739405647
4.216,1.78434466838371
4.2170000000000005,1.7546780544798821
4.218,1.7637070239288732
4.219,1.7482287905877456
4.22,1.7250114405760542
4.221,1.7379099683603272
4.222,1.7263012933544815
4.223,1.7224317350191996
4.224,1.7301708516897634
4.225,1.7366201155818999
4.226,1.749518643366173
4.227,1.7740258461562917
4.228,1.7559679072583094
4.229,1.7856345211621374
4.23,1.7946634906111285
4.231,1.7856345211621374
4.232,1.7985330489464104
4.233,1.7985330489464104
4.234,1.792083785054274
4.235,1.7830548156052828
4.236,1.7778954044915736
4.237,1.7559679072583094
4.238,1.762417171150446
4.239,1.7391998211387545
4.24,1.7263012933544815
4.241,1.7366201155818999
4.242,1.7250114405760542
4.243,1.7250114405760542
4.244,1.7314607044681907
4.245,1.741779526695609
4.246,1.7482287905877456
4.247,1.7701562878210098
4.248,1.7559679072583094
4.249,1.7804751100484282
4.25,1.804982312838547
4.251,1.7856345211621374
4.252,1.801112754503265
4.253,1.7985330489464104
4.2540000000000004,1.792083785054274
4.255,1.78434466838371
4.256,1.7701562878210098
4.257,1.7598374655935913
4.258,1.7675765822641551
4.259,1.7314607044681907
4.26,1.7314607044681907
4.261,1.7340404100250453
4.2620000000000005,1.719852029462345
4.263,1.7275911461329088
4.264,1.7366201155818999
4.265,1.728880998911336
4.266,1.7546780544798821
4.267,1.7688664350425825
4.268,1.7611273183720186
4.269,1.7907939322758466
4.2700000000000005,1.7959533433895558
4.271,1.7998229017248377
4.272,1.7998229017248377
4.273,1.801112754503265
4.274,1.788214226718992
4.275,1.7817649628268555
4.276,1.7598374655935913
4.277,1.7637070239288732
4.2780000000000005,1.758547612815164
4.279,1.728880998911336
4.28,1.7314607044681907
4.281,1.7314607044681907
4.282,1.7250114405760542
4.283,1.7250114405760542
4.284,1.7379099683603272
4.285,1.7353302628034726
4.2860000000000005,1.762417171150446
4.287,1.7611273183720186
4.288,1.7701562878210098
4.289,1.7972431961679831
4.29,1.7817649628268555
4.291,1.7985330489464104
4.292,1.801112754503265
4.293,1.7998229017248377
4.2940000000000005,1.7895040794974193
4.295,1.7817649628268555
4.296,1.7572577600367367
4.297,1.762417171150446
4.298,1.7559679072583094
4.299,1.7250114405760542
4.3,1.7314607044681907
4.301,1.7314607044681907
4.3020000000000005,1.7211418822407722
4.303,1.7263012933544815
4.304,1.7391998211387545
4.305,1.7391998211387545
4.306,1.7701562878210098
4.307,1.7520983489230275
4.308,1.7778954044915736
4.309,1.7998229017248377
4.3100000000000005,1.7778954044915736
4.311,1.7985330489464104
4.312,1.801112754503265
4.313,1.7907939322758466
4.314,1.788214226718992
4.315,1.7778954044915736
4.316,1.7546780544798821
4.317,1.7701562878210098
4.3180000000000005,1.7430693794740364
4.319,1.728880998911336
4.32,1.7379099683603272
4.321,1.7263012933544815
4.322,1.7237215877976269
4.323,1.7314607044681907
4.324,1.732750557246618
4.325,1.749518643366173
4.3260000000000005,1.762417171150446
4.327,1.7520983489230275
4.328,1.7830548156052828
4.329,1.7895040794974193
4.33,1.788214226718992
4.331,1.7959533433895558
4.332,1.7998229017248377
4.333,1.7933736378327012
4.3340000000000005,1.788214226718992
4.335,1.7675765822641551
4.336,1.7675765822641551
4.337,1.7701562878210098
4.338,1.7301708516897634
4.339,1.7353302628034726
4.34,1.7366201155818999
4.341,1.7172723239054903
4.3420000000000005,1.7237215877976269
4.343,1.7366201155818999
4.344,1.7340404100250453
4.345,1.7598374655935913
4.346,1.771446140599437
4.347,1.762417171150446
4.348,1.7933736378327012
4.349,1.7791852572700009
4.3500000000000005,1.7959533433895558
4.351,1.8024026072816923
4.352,1.7959533433895558
4.353,1.7933736378327012
4.354,1.7869243739405647
4.355,1.7649968767073005
4.356,1.7688664350425825
4.357,1.762417171150446
4.358,1.7314607044681907
4.359,1.7391998211387545
4.36,1.728880998911336
4.361,1.7121129127917811
4.362,1.7263012933544815
4.363,1.7353302628034726
4.364,1.732750557246618
